1.0,0.7582644820213318,0.11157024651765823,0.0,0.08057851344347,0.07851240038871765,0.06611569970846176,0.04958677664399147,0.047520659863948815,0.03512396663427353,0.03099173493683338,0.02892562001943588,0.03512396663427353,0.026859503239393238,0.039256200194358826,0.03512396663427353,0.043388430029153824,0.047520659863948815,0.053719006478786475,0.053719006478786475,0.07024793326854706,0.0723140463232994,0.0847107470035553,0.09710744023323059,0.12190082669258116,0.13223139941692352,0.1694214940071106,0.1962809860706329,0.21487602591514587,0.23553718626499176,0.2541322410106659,0.26446279883384705,0.28512397408485407,0.27272728085517883,0.2665289342403412,0.23966942727565765,0.21487602591514587,0.17355372011661527,0.1570248007774353,0.12396693974733353,0.12190082669258116,0.10743801295757292,0.10537189990282057,0.09710744023323059,0.10537189990282057,0.09917355328798294,0.10537189990282057,0.09917355328798294,0.10743801295757292,0.10743801295757292,0.11570248007774352,0.11157024651765823,0.12190082669258116,0.11157024651765823,0.11983471363782883,0.11157024651765823,0.11363636702299118,0.11157024651765823,0.12190082669258116,0.10537189990282057,0.10743801295757292,0.10123966634273528,0.10123966634273528,0.08677686005830765,0.09297520667314528,0.0847107470035553,0.08264462649822235,0.07851240038871765,0.07851240038871765,0.07024793326854706,0.0764462798833847,0.06818182021379471,0.07851240038871765,0.07024793326854706,0.06818182021379471,0.06818182021379471,0.07438016682863235,0.0723140463232994,0.09090909361839294,0.10123966634273528,0.10743801295757292,0.10537189990282057,0.12190082669258116,0.11570248007774352,0.10950413346290588,0.09710744023323059,0.10330578684806824,0.09710744023323059,0.08677686005830765,0.0723140463232994,0.07024793326854706,0.053719006478786475,0.057851240038871765,0.04958677664399147,0.057851240038871765,0.05165289342403412,0.05578512325882912,0.053719006478786475,0.053719006478786475,0.0,0.012396694160997868,0.18801653385162356,0.6818181872367859,0.9752066135406494,0.6157024502754211,0.041322313249111176,0.012396694160997868,0.08677686005830765,0.06611569970846176,0.06611569970846176,0.05165289342403412,0.039256200194358826,0.043388430029153824,0.03305784985423088,0.041322313249111176,0.03512396663427353,0.04545454680919647,0.041322313249111176,0.04545454680919647,0.043388430029153824,0.04958677664399147,0.047520659863948815,0.06404958665370941,0.06818182021379471,0.0,0.0,0.0,0.0,0.0,0.0,0.0,0.0,0.0,0.0,0.0,0.0,0.0,0.0,0.0,0.0,0.0,0.0,0.0,0.0,0.0,0.0,0.0,0.0,0.0,0.0,0.0,0.0,0.0,0.0,0.0,0.0,0.0,0.0,0.0,0.0,0.0,0.0,0.0,0.0,0.0,0.0,0.0,0.0,0.0,0.0,0.0,0.0,0.0,0.0,0.0,0.0,0.0,0.0,0.0,0.0,0.0,0.0,0.0,0.0,0.0,0.0,0.0,0.0
1.0,0.9236640930175779,0.6564885377883911,0.1959287524223328,0.1119592860341072,0.17557251453399658,0.12213740497827529,0.05089058354496956,0.03562340885400772,0.0559796430170536,0.040712468326091766,0.040712468326091766,0.05343511328101158,0.04834605753421784,0.040712468326091766,0.040712468326091766,0.04325699806213378,0.045801527798175805,0.045801527798175805,0.03562340885400772,0.04834605753421784,0.04834605753421784,0.05089058354496956,0.04834605753421784,0.07379134744405745,0.06870228797197342,0.07633587718009949,0.07124681770801544,0.08396946638822556,0.08142493665218353,0.10432569682598114,0.10687022656202316,0.12977099418640137,0.12977099418640137,0.13740457594394684,0.12213740497827529,0.1323155164718628,0.12468193471431732,0.12977099418640137,0.11704834550619124,0.12722645699977875,0.11959287524223328,0.11450381577014924,0.10178116708993912,0.11704834550619124,0.09923664480447768,0.09923664480447768,0.07888040691614151,0.09669211506843568,0.08651399612426758,0.07633587718009949,0.06870228797197342,0.0890585258603096,0.0890585258603096,0.0890585258603096,0.07633587718009949,0.10432569682598114,0.09160305559635161,0.09923664480447768,0.09669211506843568,0.11450381577014924,0.12213740497827529,0.12213740497827529,0.12722645699977875,0.14758269488811493,0.1704834550619125,0.1933842301368713,0.20865139365196228,0.23409669101238248,0.2239185720682144,0.2239185720682144,0.1781170517206192,0.2010178118944168,0.18066157400608063,0.12977099418640137,0.10687022656202316,0.10687022656202316,0.09669211506843568,0.09160305559635161,0.08651399612426758,0.10178116708993912,0.07633587718009949,0.0,0.0,0.23409669101238248,0.5648854970932007,0.8498727679252625,0.9949109554290771,0.9745547175407407,0.8295165300369263,0.40712466835975647,0.10941475629806519,0.1679389327764511,0.1653943955898285,0.09414758533239363,0.05343511328101158,0.05852417275309563,0.045801527798175805,0.0559796430170536,0.05343511328101158,0.0559796430170536,0.05852417275309563,0.05852417275309563,0.05089058354496956,0.05852417275309563,0.06106870248913765,0.0,0.0,0.0,0.0,0.0,0.0,0.0,0.0,0.0,0.0,0.0,0.0,0.0,0.0,0.0,0.0,0.0,0.0,0.0,0.0,0.0,0.0,0.0,0.0,0.0,0.0,0.0,0.0,0.0,0.0,0.0,0.0,0.0,0.0,0.0,0.0,0.0,0.0,0.0,0.0,0.0,0.0,0.0,0.0,0.0,0.0,0.0,0.0,0.0,0.0,0.0,0.0,0.0,0.0,0.0,0.0,0.0,0.0,0.0,0.0,0.0,0.0,0.0,0.0,0.0,0.0,0.0,0.0,0.0,0.0,0.0,0.0,0.0,0.0,0.0,0.0,0.0,0.0,0.0,0.0,0.0,0.0
1.0,0.785365879535675,0.11219511926174164,0.1268292665481567,0.24390244483947757,0.31707316637039185,0.32926830649375916,0.37317073345184326,0.3097561001777649,0.28780487179756165,0.31707316637039185,0.34634146094322205,0.35365852713584894,0.34634146094322205,0.3121951222419739,0.34634146094322205,0.356097549200058,0.3780487775802612,0.4024390280246735,0.41219511628150934,0.41707316040992737,0.43414634466171265,0.4365853667259216,0.45365855097770685,0.45121949911117554,0.43414634466171265,0.46585366129875183,0.45365855097770685,0.46097561717033386,0.4463414549827576,0.3926829397678375,0.3658536672592163,0.30243903398513794,0.31707316637039185,0.31707316637039185,0.3243902325630188,0.3268292546272278,0.3268292546272278,0.31463414430618286,0.34878048300743103,0.3414634168148041,0.34634146094322205,0.3414634168148041,0.35365852713584894,0.35853657126426697,0.26829269528388977,0.3097561001777649,0.31463414430618286,0.29756098985672,0.3097561001777649,0.3000000119209289,0.31707316637039185,0.3073170781135559,0.31463414430618286,0.31463414430618286,0.33170732855796814,0.3268292546272278,0.3390243947505951,0.35121950507164,0.35365852713584894,0.34390243887901306,0.35365852713584894,0.3000000119209289,0.3073170781135559,0.32926830649375916,0.33170732855796814,0.30487805604934687,0.31463414430618286,0.29024389386177063,0.3097561001777649,0.30487805604934687,0.29512193799018854,0.30243903398513794,0.30243903398513794,0.31951218843460083,0.29756098985672,0.3073170781135559,0.5292682647705078,0.9365853667259216,0.9878048896789551,0.35853657126426697,0.0,0.1463414579629898,0.2609755992889404,0.27073171734809875,0.2634146213531494,0.2829268276691437,0.3097561001777649,0.25609755516052246,0.2756097614765167,0.2804878056049347,0.3000000119209289,0.29756098985672,0.3219512104988098,0.0,0.0,0.0,0.0,0.0,0.0,0.0,0.0,0.0,0.0,0.0,0.0,0.0,0.0,0.0,0.0,0.0,0.0,0.0,0.0,0.0,0.0,0.0,0.0,0.0,0.0,0.0,0.0,0.0,0.0,0.0,0.0,0.0,0.0,0.0,0.0,0.0,0.0,0.0,0.0,0.0,0.0,0.0,0.0,0.0,0.0,0.0,0.0,0.0,0.0,0.0,0.0,0.0,0.0,0.0,0.0,0.0,0.0,0.0,0.0,0.0,0.0,0.0,0.0,0.0,0.0,0.0,0.0,0.0,0.0,0.0,0.0,0.0,0.0,0.0,0.0,0.0,0.0,0.0,0.0,0.0,0.0,0.0,0.0,0.0,0.0,0.0,0.0,0.0,0.0,0.0,0.0,0.0,1.0
1.0,0.9404186606407164,0.8164251446723939,0.5587761402130127,0.3140096664428711,0.23671497404575348,0.23671497404575348,0.2109500765800476,0.17713364958763123,0.1610305905342102,0.16586151719093323,0.15780998766422272,0.14653784036636353,0.138486310839653,0.13526569306850433,0.11755233258008956,0.10628019273281096,0.10144927352666853,0.09822866320610046,0.08534621447324751,0.06763284653425217,0.05152979120612144,0.0499194860458374,0.02898550778627396,0.01288244780153036,0.00805152952671051,0.006441223900765181,0.0,0.0,0.01288244780153036,0.027375200763344765,0.048309177160263055,0.07085346430540085,0.09822866320610046,0.1336553990840912,0.1610305905342102,0.1851851791143417,0.20611916482448575,0.2254428267478943,0.22866344451904297,0.23188406229019165,0.23993559181690216,0.244766503572464,0.24637681245803836,0.2383252829313278,0.24154590070247647,0.244766503572464,0.24315619468688965,0.2383252829313278,0.23993559181690216,0.24637681245803836,0.244766503572464,0.24154590070247647,0.22866344451904297,0.22866344451904297,0.2785829305648804,0.4009661972522736,0.52173912525177,0.5829307436943054,0.499194860458374,0.35748791694641113,0.2737520039081573,0.16908212006092072,0.077294684946537,0.06763284653425217,0.08856682479381561,0.1191626414656639,0.14009661972522736,0.16586151719093323,0.18679548799991608,0.2077294737100601,0.22383253276348117,0.22383253276348117,0.22705313563346863,0.0,0.0,0.0,0.0,0.0,0.0,0.0,0.0,0.0,0.0,0.0,0.0,0.0,0.0,0.0,0.0,0.0,0.0,0.0,0.0,0.0,0.0,0.0,0.0,0.0,0.0,0.0,0.0,0.0,0.0,0.0,0.0,0.0,0.0,0.0,0.0,0.0,0.0,0.0,0.0,0.0,0.0,0.0,0.0,0.0,0.0,0.0,0.0,0.0,0.0,0.0,0.0,0.0,0.0,0.0,0.0,0.0,0.0,0.0,0.0,0.0,0.0,0.0,0.0,0.0,0.0,0.0,0.0,0.0,0.0,0.0,0.0,0.0,0.0,0.0,0.0,0.0,0.0,0.0,0.0,0.0,0.0,0.0,0.0,0.0,0.0,0.0,0.0,0.0,0.0,0.0,0.0,0.0,0.0,0.0,0.0,0.0,0.0,0.0,0.0,0.0,0.0,0.0,0.0,0.0,0.0,0.0,0.0,0.0,0.0,0.0,0.0,0.0,2.0
0.9696969985961914,1.0,0.5232323408126831,0.14747475087642667,0.06060606241226196,0.014141414314508438,0.004040404222905636,0.0060606058686971664,0.05656565725803375,0.20606060326099396,0.3757575750350952,0.42222222685813904,0.43232324719429016,0.4343434274196625,0.4626262485980988,0.4747474789619446,0.4585858583450317,0.4484848380088806,0.4484848380088806,0.4464646577835083,0.4282828271389008,0.41616162657737726,0.40404039621353144,0.4080808162689209,0.38787877559661865,0.37979796528816223,0.3696969747543335,0.3676767647266388,0.37373736500740046,0.3676767647266388,0.37171718478202814,0.39191919565200806,0.4020202159881592,0.41616162657737726,0.4444444477558136,0.4747474789619446,0.486868679523468,0.4909090995788574,0.5030303001403809,0.5232323408126831,0.5272727012634277,0.5333333611488342,0.5272727012634277,0.5272727012634277,0.5272727012634277,0.521212100982666,0.5232323408126831,0.5292929410934448,0.5171717405319214,0.5070707201957704,0.5171717405319214,0.5232323408126831,0.5070707201957704,0.4969696998596192,0.5030303001403809,0.521212100982666,0.5111111402511597,0.5030303001403809,0.5111111402511597,0.5232323408126831,0.5070707201957704,0.5070707201957704,0.513131320476532,0.5111111402511597,0.5111111402511597,0.5090909004211426,0.513131320476532,0.5272727012634277,0.539393961429596,0.5434343218803406,0.54747474193573,0.573737382888794,0.5979797840118408,0.6000000238418579,0.5797979831695557,0.5575757622718811,0.573737382888794,0.6020202040672302,0.5757575631141664,0.5252525210380553,0.5151515007019042,0.4949494898319244,0.48282828927040095,0.4787878692150116,0.4767676889896393,0.4747474789619446,0.48282828927040095,0.4909090995788574,0.4909090995788574,0.4767676889896393,0.48282828927040095,0.4949494898319244,0.48282828927040095,0.46868687868118286,0.539393961429596,0.723232328891754,0.81010103225708,0.8060606122016906,1.0,0.9717171788215635,0.4484848380088806,0.13535353541374207,0.05454545468091965,0.018181817606091496,0.004040404222905636,0.0,0.052525252103805535,0.18585859239101407,0.35757574439048767,0.44040402770042414,0.4606060683727264,0.4787878692150116,0.486868679523468,0.486868679523468,0.4787878692150116,0.5030303001403809,0.4949494898319244,0.4727272689342498,0.0,0.0,0.0,0.0,0.0,0.0,0.0,0.0,0.0,0.0,0.0,0.0,0.0,0.0,0.0,0.0,0.0,0.0,0.0,0.0,0.0,0.0,0.0,0.0,0.0,0.0,0.0,0.0,0.0,0.0,0.0,0.0,0.0,0.0,0.0,0.0,0.0,0.0,0.0,0.0,0.0,0.0,0.0,0.0,0.0,0.0,0.0,0.0,0.0,0.0,0.0,0.0,0.0,0.0,0.0,0.0,0.0,0.0,0.0,0.0,0.0,0.0,0.0,0.0,0.0,0.0,0.0,0.0,0.0,0.0
0.8409090638160706,0.9261363744735716,1.0,0.9734848737716675,0.5719696879386902,0.2897727191448212,0.13257575035095215,0.12121212482452393,0.10227272659540176,0.07386363297700883,0.07007575780153275,0.08333333581686019,0.03977272659540176,0.05871212109923363,0.02651515230536461,0.03598484769463539,0.03219696879386902,0.02651515230536461,0.020833333954215046,0.0,0.01515151560306549,0.0037878789007663727,0.0037878789007663727,0.018939394503831863,0.018939394503831863,0.049242425709962845,0.06628787517547607,0.11363636702299118,0.11742424219846724,0.1666666716337204,0.18371212482452393,0.2026515156030655,0.2026515156030655,0.23674242198467252,0.2083333283662796,0.20454545319080353,0.2026515156030655,0.2083333283662796,0.21590909361839292,0.21212121844291687,0.19696970283985135,0.23863635957241056,0.18939393758773804,0.219696968793869,0.21590909361839292,0.2291666716337204,0.21022726595401764,0.22537878155708313,0.22159090638160703,0.23863635957241056,0.2443181872367859,0.24621212482452393,0.2651515007019043,0.24242424964904785,0.2537878751754761,0.2670454680919647,0.25568181276321406,0.27462121844291687,0.2651515007019043,0.2537878751754761,0.26893940567970276,0.280303031206131,0.3030303120613098,0.3219696879386902,0.30492424964904785,0.31818181276321406,0.31818181276321406,0.3011363744735718,0.2651515007019043,0.280303031206131,0.25568181276321406,0.282196968793869,0.2443181872367859,0.2594696879386902,0.2651515007019043,0.282196968793869,0.2859848439693451,0.2594696879386902,0.41287878155708313,0.7045454382896423,0.94696968793869,0.6780303120613098,0.3030303120613098,0.2708333432674408,0.2765151560306549,0.29924243688583374,0.28787878155708313,0.2954545319080353,0.2897727191448212,0.30492424964904785,0.2973484992980957,0.2859848439693451,0.3011363744735718,0.3087121248245239,0.3238636255264282,0.0,0.0,0.0,0.0,0.0,0.0,0.0,0.0,0.0,0.0,0.0,0.0,0.0,0.0,0.0,0.0,0.0,0.0,0.0,0.0,0.0,0.0,0.0,0.0,0.0,0.0,0.0,0.0,0.0,0.0,0.0,0.0,0.0,0.0,0.0,0.0,0.0,0.0,0.0,0.0,0.0,0.0,0.0,0.0,0.0,0.0,0.0,0.0,0.0,0.0,0.0,0.0,0.0,0.0,0.0,0.0,0.0,0.0,0.0,0.0,0.0,0.0,0.0,0.0,0.0,0.0,0.0,0.0,0.0,0.0,0.0,0.0,0.0,0.0,0.0,0.0,0.0,0.0,0.0,0.0,0.0,0.0,0.0,0.0,0.0,0.0,0.0,0.0,0.0,0.0,0.0,0.0,3.0
1.0,0.6944444179534912,0.2380952388048172,0.3214285671710968,0.3373015820980072,0.3373015820980072,0.30158731341362,0.3253968358039856,0.3253968358039856,0.3333333432674408,0.3174603283405304,0.341269850730896,0.341269850730896,0.3531745970249176,0.3373015820980072,0.3611111044883728,0.3373015820980072,0.3650793731212616,0.3253968358039856,0.341269850730896,0.3531745970249176,0.3531745970249176,0.3373015820980072,0.380952388048172,0.329365074634552,0.3373015820980072,0.3214285671710968,0.341269850730896,0.2976190447807312,0.2976190447807312,0.2738095223903656,0.2698412835597992,0.2420634925365448,0.2420634925365448,0.2261904776096344,0.2539682686328888,0.2182539701461792,0.230158731341362,0.210317462682724,0.25,0.2420634925365448,0.25,0.2341269850730896,0.2658730149269104,0.2420634925365448,0.2539682686328888,0.2341269850730896,0.2420634925365448,0.2420634925365448,0.25,0.2182539701461792,0.2460317462682724,0.2182539701461792,0.2539682686328888,0.2261904776096344,0.2380952388048172,0.2182539701461792,0.2341269850730896,0.2023809552192688,0.2460317462682724,0.2063492089509964,0.230158731341362,0.210317462682724,0.210317462682724,0.2142857164144516,0.2261904776096344,0.1944444477558136,0.2142857164144516,0.1984127014875412,0.2261904776096344,0.2142857164144516,0.2341269850730896,0.1865079402923584,0.2261904776096344,0.1984127014875412,0.2261904776096344,0.1984127014875412,0.230158731341362,0.210317462682724,0.2142857164144516,0.2023809552192688,0.2222222238779068,0.2023809552192688,0.2142857164144516,0.1746031790971756,0.2063492089509964,0.1984127014875412,0.2261904776096344,0.1785714328289032,0.2182539701461792,0.1944444477558136,0.2261904776096344,0.1785714328289032,0.2142857164144516,0.1944444477558136,0.2142857164144516,0.1746031790971756,0.1865079402923584,0.1666666716337204,0.2023809552192688,0.1587301641702652,0.1666666716337204,0.1825396865606308,0.1825396865606308,0.1746031790971756,0.1785714328289032,0.1666666716337204,0.1746031790971756,0.1547619104385376,0.1785714328289032,0.15079365670681,0.1626984179019928,0.1468254029750824,0.1587301641702652,0.1547619104385376,0.1428571492433548,0.130952388048172,0.1746031790971756,0.1587301641702652,0.1984127014875412,0.170634925365448,0.1984127014875412,0.1984127014875412,0.1865079402923584,0.130952388048172,0.1190476194024086,0.08730158954858781,0.1111111119389534,0.09523809701204303,0.1071428582072258,0.08730158954858781,0.115079365670681,0.09920635074377061,0.08730158954858781,0.130952388048172,0.5357142686843872,0.6984127163887024,0.1269841343164444,0.0,0.1349206417798996,0.1071428582072258,0.1111111119389534,0.09523809701204303,0.09920635074377061,0.09523809701204303,0.115079365670681,0.08730158954858781,0.0,0.0,0.0,0.0,0.0,0.0,0.0,0.0,0.0,0.0,0.0,0.0,0.0,0.0,0.0,0.0,0.0,0.0,0.0,0.0,0.0,0.0,0.0,0.0,0.0,0.0,0.0,0.0,0.0,0.0,0.0,0.0,0.0,0.0,0.0,0.0,0.0,0.0,0.0,0.0,1.0
1.0,0.9019933342933655,0.7441860437393187,0.5083056688308716,0.32724252343177795,0.19269102811813357,0.09302325546741484,0.06478404998779297,0.049833886325359344,0.03820598125457764,0.04152823984622955,0.02823920175433159,0.04152823984622955,0.04485049843788146,0.04152823984622955,0.04485049843788146,0.049833886325359344,0.046511627733707435,0.04485049843788146,0.04318936914205551,0.04152823984622955,0.033222589641809464,0.02823920175433159,0.014950166456401348,0.0199335552752018,0.0199335552752018,0.0199335552752018,0.008305647410452364,0.0,0.006644518114626408,0.011627906933426855,0.001661129528656602,0.014950166456401348,0.029900332912802696,0.03820598125457764,0.031561460345983505,0.04152823984622955,0.06478404998779297,0.0830564796924591,0.08139535039663315,0.07308970391750334,0.051495015621185296,0.0714285746216774,0.12624584138393402,0.13621261715888977,0.08970099687576294,0.07308970391750334,0.07807309180498123,0.12458471953868865,0.15946844220161435,0.16777408123016355,0.1461794078350067,0.15614618360996246,0.16777408123016355,0.17275747656822205,0.17275747656822205,0.18272425234317777,0.18438538908958435,0.1893687695264816,0.17940199375152588,0.18604651093482968,0.18770764768123624,0.22093023359775543,0.2225913554430008,0.2823920249938965,0.2740863859653473,0.19269102811813357,0.14119601249694824,0.0,0.0,0.0,0.0,0.0,0.0,0.0,0.0,0.0,0.0,0.0,0.0,0.0,0.0,0.0,0.0,0.0,0.0,0.0,0.0,0.0,0.0,0.0,0.0,0.0,0.0,0.0,0.0,0.0,0.0,0.0,0.0,0.0,0.0,0.0,0.0,0.0,0.0,0.0,0.0,0.0,0.0,0.0,0.0,0.0,0.0,0.0,0.0,0.0,0.0,0.0,0.0,0.0,0.0,0.0,0.0,0.0,0.0,0.0,0.0,0.0,0.0,0.0,0.0,0.0,0.0,0.0,0.0,0.0,0.0,0.0,0.0,0.0,0.0,0.0,0.0,0.0,0.0,0.0,0.0,0.0,0.0,0.0,0.0,0.0,0.0,0.0,0.0,0.0,0.0,0.0,0.0,0.0,0.0,0.0,0.0,0.0,0.0,0.0,0.0,0.0,0.0,0.0,0.0,0.0,0.0,0.0,0.0,0.0,0.0,0.0,0.0,0.0,0.0,0.0,0.0,0.0,0.0,0.0,2.0
1.0,0.800000011920929,0.4167938828468322,0.11603053659200668,0.0,0.09312976896762849,0.13129770755767822,0.09312976896762849,0.08396946638822556,0.08091603219509123,0.06870228797197342,0.07480916380882262,0.06564885377883911,0.05190839618444442,0.06870228797197342,0.07022900879383087,0.06564885377883911,0.09007633477449416,0.1053435131907463,0.12213740497827529,0.1480915993452072,0.17251908779144287,0.2152671813964844,0.23664122819900513,0.26259541511535645,0.29923665523529047,0.32366412878036493,0.34809160232543945,0.3862595558166504,0.4167938828468322,0.41068702936172485,0.43511450290679926,0.4305343627929688,0.4213740527629852,0.42595419287681574,0.40458014607429504,0.3847328126430512,0.34656488895416254,0.3145038187503814,0.30229008197784424,0.27175572514534,0.256488561630249,0.238167941570282,0.22595420479774475,0.23511449992656708,0.21374045312404633,0.21221373975276947,0.2549618184566498,0.23206107318401337,0.2549618184566498,0.30839693546295166,0.2961831986904144,0.2839694619178772,0.2778626084327698,0.22137404978275296,0.187786266207695,0.18320611119270325,0.1786259561777115,0.1938931345939636,0.18625953793525693,0.17557251453399658,0.16641221940517423,0.17099235951900482,0.15267175436019895,0.14351144433021543,0.20000000298023224,0.41374045610427856,0.7633587718009949,1.0,0.8610687255859374,0.5526717305183411,0.24732825160026553,0.02595419809222221,0.08549617975950241,0.12977099418640137,0.0793893113732338,0.07633587718009949,0.07480916380882262,0.04885496199131012,0.05190839618444442,0.035114504396915436,0.042748089879751205,0.0,0.0,0.0,0.0,0.0,0.0,0.0,0.0,0.0,0.0,0.0,0.0,0.0,0.0,0.0,0.0,0.0,0.0,0.0,0.0,0.0,0.0,0.0,0.0,0.0,0.0,0.0,0.0,0.0,0.0,0.0,0.0,0.0,0.0,0.0,0.0,0.0,0.0,0.0,0.0,0.0,0.0,0.0,0.0,0.0,0.0,0.0,0.0,0.0,0.0,0.0,0.0,0.0,0.0,0.0,0.0,0.0,0.0,0.0,0.0,0.0,0.0,0.0,0.0,0.0,0.0,0.0,0.0,0.0,0.0,0.0,0.0,0.0,0.0,0.0,0.0,0.0,0.0,0.0,0.0,0.0,0.0,0.0,0.0,0.0,0.0,0.0,0.0,0.0,0.0,0.0,0.0,0.0,0.0,0.0,0.0,0.0,0.0,0.0,0.0,0.0,0.0,0.0,0.0,0.0,0.0
1.0,0.9174193739891052,0.6800000071525574,0.3612903356552124,0.12774193286895752,0.12903225421905515,0.12645161151885986,0.09935484081506728,0.08258064836263657,0.06580644845962524,0.05806451663374901,0.04903225973248482,0.034838709980249405,0.025806451216340065,0.015483871102333069,0.015483871102333069,0.009032257832586765,0.0,0.0116129033267498,0.018064515665173527,0.030967742204666138,0.04774193465709686,0.07483871281147003,0.11483871191740036,0.1432258039712906,0.1716129034757614,0.21677419543266296,0.2541935443878174,0.2851612865924835,0.30451613664627075,0.314838707447052,0.33935484290122986,0.3354838788509369,0.33032259345054626,0.32774192094802856,0.3096774220466614,0.29935485124588007,0.2774193584918976,0.2541935443878174,0.25161290168762207,0.23483870923519132,0.22580644488334653,0.22838710248470304,0.2270967811346054,0.24645161628723145,0.268387109041214,0.2825806438922882,0.30709677934646606,0.31612902879714966,0.2967741787433624,0.25290322303771967,0.22064515948295596,0.21806451678276065,0.21548387408256528,0.21290323138237,0.22451612353324887,0.22064515948295596,0.22064515948295596,0.2270967811346054,0.22064515948295596,0.21548387408256528,0.27483871579170227,0.47870966792106634,0.7806451320648193,0.8580645322799682,0.6141935586929321,0.3032258152961731,0.07870967686176301,0.07354838401079178,0.16516129672527313,0.0,0.0,0.0,0.0,0.0,0.0,0.0,0.0,0.0,0.0,0.0,0.0,0.0,0.0,0.0,0.0,0.0,0.0,0.0,0.0,0.0,0.0,0.0,0.0,0.0,0.0,0.0,0.0,0.0,0.0,0.0,0.0,0.0,0.0,0.0,0.0,0.0,0.0,0.0,0.0,0.0,0.0,0.0,0.0,0.0,0.0,0.0,0.0,0.0,0.0,0.0,0.0,0.0,0.0,0.0,0.0,0.0,0.0,0.0,0.0,0.0,0.0,0.0,0.0,0.0,0.0,0.0,0.0,0.0,0.0,0.0,0.0,0.0,0.0,0.0,0.0,0.0,0.0,0.0,0.0,0.0,0.0,0.0,0.0,0.0,0.0,0.0,0.0,0.0,0.0,0.0,0.0,0.0,0.0,0.0,0.0,0.0,0.0,0.0,0.0,0.0,0.0,0.0,0.0,0.0,0.0,0.0,0.0,0.0,0.0,0.0,0.0,0.0,0.0,0.0,0.0,0.0,3.0
0.0,0.02247191034257412,0.08489388227462769,0.16729088127613068,0.21598002314567563,0.2821473181247711,0.3433208465576172,0.3907615542411804,0.47940075397491455,0.5905118584632874,0.6441947817802429,0.6429463028907776,0.6342072486877441,0.6392009854316713,0.6566791534423828,0.680399477481842,0.6828963756561279,0.7003745436668396,0.7091135978698729,0.7078651785850525,0.7240948677062988,0.7328339815139769,0.7702871561050414,0.7902621626853943,0.784019947052002,0.7790262103080748,0.7865168452262878,0.7590512037277221,0.7265917658805846,0.7116104960441588,0.6853932738304137,0.6504369378089905,0.6179774999618529,0.5992509126663208,0.5905118584632874,0.5755305886268616,0.5393258333206177,0.5430711507797241,0.5468164682388306,0.5330836176872252,0.5280898809432983,0.5430711507797241,0.5368289351463318,0.5393258333206177,0.5355805158615112,0.5368289351463318,0.5493133664131165,0.5305867791175841,0.5330836176872252,0.5330836176872252,0.5230961441993712,0.5255929827690125,0.5305867791175841,0.5268414616584778,0.521847665309906,0.5243445634841919,0.5031210780143738,0.5156055092811584,0.5205992460250854,0.5018726587295532,0.5056179761886597,0.5243445634841919,0.521847665309906,0.5006242394447327,0.5031210780143738,0.5156055092811584,0.5093632936477661,0.5056179761886597,0.5181023478507996,0.5131086111068726,0.5243445634841919,0.516853928565979,0.5143570303916931,0.521847665309906,0.5143570303916931,0.5243445634841919,0.5143570303916931,0.5243445634841919,0.5568040013313292,0.5568040013313292,0.5493133664131165,0.579275906085968,0.5980024933815001,0.5917602777481079,0.5892634391784668,0.5917602777481079,0.5730336904525757,0.5555555820465088,0.5243445634841919,0.5181023478507996,0.5205992460250854,0.5181023478507996,0.5268414616584778,0.5230961441993712,0.5305867791175841,0.6441947817802429,0.7952559590339661,0.9250936508178712,1.0,0.9225967526435853,0.670412003993988,0.5380774140357971,0.5405742526054382,0.5006242394447327,0.4731585383415222,0.4818976223468781,0.4756554365158081,0.4644194841384888,0.0,0.0,0.0,0.0,0.0,0.0,0.0,0.0,0.0,0.0,0.0,0.0,0.0,0.0,0.0,0.0,0.0,0.0,0.0,0.0,0.0,0.0,0.0,0.0,0.0,0.0,0.0,0.0,0.0,0.0,0.0,0.0,0.0,0.0,0.0,0.0,0.0,0.0,0.0,0.0,0.0,0.0,0.0,0.0,0.0,0.0,0.0,0.0,0.0,0.0,0.0,0.0,0.0,0.0,0.0,0.0,0.0,0.0,0.0,0.0,0.0,0.0,0.0,0.0,0.0,0.0,0.0,0.0,0.0,0.0,0.0,0.0,0.0,0.0,0.0,0.0,0.0,0.0,0.0,2.0
0.8681135177612304,1.0,0.7813021540641784,0.35559266805648804,0.20701168477535248,0.17696160078048706,0.14524206519126892,0.14023372530937195,0.12687812745571136,0.13188648223876953,0.1218697801232338,0.12020033597946166,0.11185308545827864,0.1218697801232338,0.10684473812580109,0.11018364131450652,0.09015025198459624,0.09515859931707382,0.07846410572528838,0.08514190465211868,0.07679465413093568,0.08180300146341325,0.07846410572528838,0.09515859931707382,0.10183639079332352,0.1285475790500641,0.13188648223876953,0.16360600292682648,0.1736226975917816,0.1953255385160446,0.1919866502285004,0.20200334489345553,0.1919866502285004,0.1969949901103973,0.18864774703979487,0.1919866502285004,0.18363939225673676,0.1919866502285004,0.18697829544544217,0.19365608692169187,0.18697829544544217,0.19031719863414764,0.18363939225673676,0.19365608692169187,0.18697829544544217,0.20200334489345553,0.20701168477535248,0.2420701235532761,0.2821368873119354,0.3589315414428711,0.4290484189987183,0.5275459289550781,0.6010016798973083,0.6978297233581543,0.7595993280410767,0.7545909881591795,0.6844741106033325,0.6494156718254088,0.6026711463928223,0.6110183596611023,0.5909850001335144,0.47412353754043574,0.26210349798202515,0.1502504199743271,0.1001669466495514,0.08848080039024353,0.060100167989730835,0.05509182065725327,0.03839732706546784,0.04006677865982056,0.018363939598202705,0.01669449172914028,0.0,0.0,0.0,0.0,0.0,0.0,0.0,0.0,0.0,0.0,0.0,0.0,0.0,0.0,0.0,0.0,0.0,0.0,0.0,0.0,0.0,0.0,0.0,0.0,0.0,0.0,0.0,0.0,0.0,0.0,0.0,0.0,0.0,0.0,0.0,0.0,0.0,0.0,0.0,0.0,0.0,0.0,0.0,0.0,0.0,0.0,0.0,0.0,0.0,0.0,0.0,0.0,0.0,0.0,0.0,0.0,0.0,0.0,0.0,0.0,0.0,0.0,0.0,0.0,0.0,0.0,0.0,0.0,0.0,0.0,0.0,0.0,0.0,0.0,0.0,0.0,0.0,0.0,0.0,0.0,0.0,0.0,0.0,0.0,0.0,0.0,0.0,0.0,0.0,0.0,0.0,0.0,0.0,0.0,0.0,0.0,0.0,0.0,0.0,0.0,0.0,0.0,0.0,0.0,0.0,0.0,0.0,0.0,0.0,0.0,0.0,0.0,0.0,0.0,0.0,3.0
1.0,0.7465564608573914,0.08815427124500273,0.03581267222762108,0.21212121844291687,0.25344353914260864,0.26997244358062744,0.2837465703487396,0.27548208832740784,0.27272728085517883,0.2782369256019592,0.2837465703487396,0.2975206673145294,0.28925618529319763,0.3002754747867584,0.3168044090270996,0.3112947642803192,0.3305785059928894,0.352617084980011,0.3691460192203522,0.382920116186142,0.39118456840515137,0.4214875996112824,0.42424243688583374,0.4462809860706329,0.4407713413238525,0.4517906308174133,0.43801653385162354,0.42699724435806274,0.40220385789871216,0.3608815371990204,0.34159779548645014,0.3278236985206604,0.3168044090270996,0.28925618529319763,0.2782369256019592,0.28099173307418823,0.26721763610839844,0.26997244358062744,0.2837465703487396,0.2837465703487396,0.2837465703487396,0.3030303120613098,0.3030303120613098,0.3057851195335388,0.3057851195335388,0.3112947642803192,0.3085399568080902,0.3002754747867584,0.292011022567749,0.292011022567749,0.28099173307418823,0.2782369256019592,0.28925618529319763,0.28925618529319763,0.26721763610839844,0.28650137782096863,0.27272728085517883,0.3002754747867584,0.3140496015548706,0.3112947642803192,0.32231405377388,0.3112947642803192,0.3168044090270996,0.3085399568080902,0.2782369256019592,0.3030303120613098,0.3057851195335388,0.28925618529319763,0.26170799136161804,0.25895315408706665,0.26997244358062744,0.27272728085517883,0.26721763610839844,0.26997244358062744,0.27272728085517883,0.25619834661483765,0.3168044090270996,0.5647382736206055,0.9504132270812988,0.9008264541625975,0.20936639606952667,0.0,0.1487603336572647,0.21487602591514587,0.24517905712127683,0.26721763610839844,0.25895315408706665,0.25895315408706665,0.25068870186805725,0.26170799136161804,0.26721763610839844,0.26997244358062744,0.28650137782096863,0.3057851195335388,0.0,0.0,0.0,0.0,0.0,0.0,0.0,0.0,0.0,0.0,0.0,0.0,0.0,0.0,0.0,0.0,0.0,0.0,0.0,0.0,0.0,0.0,0.0,0.0,0.0,0.0,0.0,0.0,0.0,0.0,0.0,0.0,0.0,0.0,0.0,0.0,0.0,0.0,0.0,0.0,0.0,0.0,0.0,0.0,0.0,0.0,0.0,0.0,0.0,0.0,0.0,0.0,0.0,0.0,0.0,0.0,0.0,0.0,0.0,0.0,0.0,0.0,0.0,0.0,0.0,0.0,0.0,0.0,0.0,0.0,0.0,0.0,0.0,0.0,0.0,0.0,0.0,0.0,0.0,0.0,0.0,0.0,0.0,0.0,0.0,0.0,0.0,0.0,0.0,0.0,0.0,0.0,1.0
1.0,0.9104166626930237,0.6812499761581421,0.4729166626930237,0.2291666716337204,0.06875000149011612,0.0,0.004166666883975267,0.014583333395421503,0.05416666716337204,0.10208333283662796,0.12291666865348816,0.15000000596046448,0.16875000298023224,0.17291666567325592,0.17083333432674408,0.16875000298023224,0.16458334028720856,0.15625,0.15208333730697632,0.14791665971279144,0.14791665971279144,0.1458333283662796,0.1458333283662796,0.14166666567325592,0.14166666567325592,0.14791665971279144,0.15833333134651184,0.16875000298023224,0.17916665971279144,0.19166666269302368,0.20624999701976776,0.22083333134651184,0.2395833283662796,0.25833332538604736,0.2750000059604645,0.2874999940395355,0.3083333373069763,0.32083332538604736,0.3312500119209289,0.3416666686534881,0.34583333134651184,0.35208332538604736,0.3541666567325592,0.34583333134651184,0.34583333134651184,0.3479166626930237,0.3416666686534881,0.3416666686534881,0.34375,0.34375,0.3416666686534881,0.3375000059604645,0.3416666686534881,0.3604166805744171,0.3583333194255829,0.3583333194255829,0.35208332538604736,0.35624998807907104,0.3583333194255829,0.34375,0.30416667461395264,0.2874999940395355,0.2708333432674408,0.2666666805744171,0.2604166567325592,0.26249998807907104,0.2562499940395355,0.2687500119209289,0.2604166567325592,0.2645833194255829,0.2687500119209289,0.2708333432674408,0.2708333432674408,0.2750000059604645,0.27291667461395264,0.2791666686534881,0.28125,0.28125,0.28333333134651184,0.2770833373069763,0.2604166567325592,0.3187499940395355,0.48124998807907104,0.6145833134651184,0.7479166388511658,0.9041666388511655,0.9708333611488342,0.9354166388511655,0.7395833134651184,0.5458333492279053,0.31458333134651184,0.12708333134651184,0.01666666753590107,0.020833333954215046,0.02291666716337204,0.06458333134651184,0.10208333283662796,0.12291666865348816,0.15833333134651184,0.1770833283662796,0.17291666567325592,0.17499999701976776,0.16875000298023224,0.16458334028720856,0.0,0.0,0.0,0.0,0.0,0.0,0.0,0.0,0.0,0.0,0.0,0.0,0.0,0.0,0.0,0.0,0.0,0.0,0.0,0.0,0.0,0.0,0.0,0.0,0.0,0.0,0.0,0.0,0.0,0.0,0.0,0.0,0.0,0.0,0.0,0.0,0.0,0.0,0.0,0.0,0.0,0.0,0.0,0.0,0.0,0.0,0.0,0.0,0.0,0.0,0.0,0.0,0.0,0.0,0.0,0.0,0.0,0.0,0.0,0.0,0.0,0.0,0.0,0.0,0.0,0.0,0.0,0.0,0.0,0.0,0.0,0.0,0.0,0.0,0.0,0.0,0.0,0.0,0.0,0.0,0.0,0.0,0.0
0.33885818719863886,0.47882136702537537,0.5322283506393433,0.5230202674865723,0.5524861812591553,0.6666666865348816,0.7237569093704223,0.7274401187896729,0.7237569093704223,0.7292817831039428,0.7440147399902343,0.7532228231430053,0.7513812184333801,0.7587476968765258,0.7661141753196716,0.7697974443435669,0.7697974443435669,0.7697974443435669,0.7771639227867126,0.7900552749633789,0.780847132205963,0.7955800890922545,0.8066298365592957,0.8047882318496704,0.808471441268921,0.810313045978546,0.8287292718887329,0.8360957503318786,0.8379374146461488,0.8489871025085449,0.8655617237091064,0.8674033284187315,0.8600368499755859,0.8710865378379821,0.8766114115715027,0.8747698068618774,0.8655617237091064,0.8618784546852112,0.8674033284187315,0.8637200593948364,0.8471454977989197,0.8434622287750243,0.8434622287750243,0.8360957503318786,0.8158379197120665,0.8029465675354005,0.7955800890922545,0.7753222584724425,0.7550644278526306,0.7421731352806091,0.7348066568374634,0.7182320356369019,0.7034990787506104,0.6961326003074646,0.6942909955978394,0.6942909955978394,0.6850828528404236,0.6832412481307983,0.6924493312835692,0.6869245171546936,0.6777163743972777,0.681399643421173,0.6906077265739441,0.6887661218643188,0.6850828528404236,0.6850828528404236,0.6924493312835692,0.6906077265739441,0.6832412481307983,0.6832412481307983,0.6924493312835692,0.6887661218643188,0.6832412481307983,0.6850828528404236,0.6906077265739441,0.6906077265739441,0.6850828528404236,0.6850828528404236,0.6979742050170897,0.6961326003074646,0.6906077265739441,0.6869245171546936,0.6961326003074646,0.6869245171546936,0.6887661218643188,0.6869245171546936,0.6961326003074646,0.6979742050170897,0.6887661218643188,0.6850828528404236,0.6924493312835692,0.6924493312835692,0.6850828528404236,0.6850828528404236,0.6924493312835692,0.6924493312835692,0.6850828528404236,0.6869245171546936,0.6961326003074646,0.6924493312835692,0.6906077265739441,0.6832412481307983,0.6887661218643188,0.6961326003074646,0.6906077265739441,0.6869245171546936,0.6887661218643188,0.6906077265739441,0.6869245171546936,0.6869245171546936,0.6961326003074646,0.6961326003074646,0.6906077265739441,0.6979742050170897,0.7053406834602356,0.6961326003074646,0.6887661218643188,0.7016574740409851,0.7145488262176514,0.7182320356369019,0.6979742050170897,0.6832412481307983,0.6685082912445068,0.6777163743972777,0.6961326003074646,0.7219153046607971,0.7200736403465271,0.6777163743972777,0.5432780981063843,0.33517494797706604,0.22836095094680783,0.1270718276500702,0.05156537890434265,0.0,0.005524862091988325,0.1620626151561737,0.3093922734260559,0.440147340297699,0.6132596731185913,0.7292817831039428,0.7753222584724425,0.7826887369155883,0.8047882318496704,0.8195211887359619,0.8250460624694824,0.8342541456222534,0.8489871025085449,0.8600368499755859,0.8637200593948364,0.8747698068618774,0.889502763748169,0.8987108469009398,0.9023941159248352,0.9134438037872313,0.9300184249877927,0.9410681128501891,0.9465929865837096,0.9631676077842712,0.9815837740898131,1.0,0.0,0.0,0.0,0.0,0.0,0.0,0.0,0.0,0.0,0.0,0.0,0.0,0.0,0.0,0.0,0.0,0.0,0.0,0.0,0.0,0.0,0.0,0.0,0.0,0.0,0.0,0.0,3.0
1.0,0.7964601516723632,0.3613569438457489,0.08554572612047195,0.07227138429880142,0.1828908622264862,0.2197640091180801,0.18879055976867676,0.18731562793254847,0.19764012098312375,0.17256636917591095,0.16814158856868744,0.1622418910264969,0.17551621794700623,0.1799409985542297,0.1799409985542297,0.1991150379180908,0.2197640091180801,0.2389380484819412,0.25958701968193054,0.27581119537353516,0.31563422083854675,0.3421829044818878,0.362831860780716,0.4041298031806946,0.4247787594795227,0.4483775794506073,0.4675516188144684,0.4852507412433624,0.491150438785553,0.49410030245780945,0.47935104370117193,0.4719763994216919,0.4528023600578308,0.43215340375900263,0.4026548564434052,0.38053098320961,0.37020647525787354,0.3421829044818878,0.30678465962409973,0.29646018147468567,0.2817109227180481,0.2699114978313446,0.2654867172241211,0.2684365808963776,0.2728613615036011,0.2699114978313446,0.28318583965301514,0.32300883531570435,0.3480826020240784,0.364306777715683,0.35840708017349243,0.3244837820529938,0.28318583965301514,0.2389380484819412,0.2418879121541977,0.23746313154697415,0.23008850216865537,0.23746313154697415,0.2389380484819412,0.23598819971084595,0.23746313154697415,0.2227138578891754,0.20796459913253784,0.2772861421108246,0.5324483513832092,0.8702064752578734,0.9380530714988707,0.6238937973976135,0.3008849620819092,0.0752212405204773,0.0,0.10914454609155654,0.15634217858314514,0.11651917546987532,0.11356931924819946,0.11356931924819946,0.1032448410987854,0.10029498487710951,0.08407079428434373,0.0,0.0,0.0,0.0,0.0,0.0,0.0,0.0,0.0,0.0,0.0,0.0,0.0,0.0,0.0,0.0,0.0,0.0,0.0,0.0,0.0,0.0,0.0,0.0,0.0,0.0,0.0,0.0,0.0,0.0,0.0,0.0,0.0,0.0,0.0,0.0,0.0,0.0,0.0,0.0,0.0,0.0,0.0,0.0,0.0,0.0,0.0,0.0,0.0,0.0,0.0,0.0,0.0,0.0,0.0,0.0,0.0,0.0,0.0,0.0,0.0,0.0,0.0,0.0,0.0,0.0,0.0,0.0,0.0,0.0,0.0,0.0,0.0,0.0,0.0,0.0,0.0,0.0,0.0,0.0,0.0,0.0,0.0,0.0,0.0,0.0,0.0,0.0,0.0,0.0,0.0,0.0,0.0,0.0,0.0,0.0,0.0,0.0,0.0,0.0,0.0,0.0,0.0,0.0,0.0,0.0,0.0,0.0
0.9278033971786499,0.8663594722747802,0.299539178609848,0.0,0.23195084929466248,0.31797236204147333,0.27496159076690674,0.2626728117465973,0.2703533172607422,0.2688172161579132,0.27649769186973566,0.2718893885612488,0.2718893885612488,0.26728111505508423,0.2703533172607422,0.2718893885612488,0.26728111505508423,0.2703533172607422,0.27496159076690674,0.27496159076690674,0.2734254896640777,0.2718893885612488,0.27496159076690674,0.2795698940753937,0.27496159076690674,0.27649769186973566,0.28264209628105164,0.2872503697872162,0.28110599517822266,0.2841781973838806,0.2918586730957031,0.301075279712677,0.301075279712677,0.3087557554244995,0.32258063554763794,0.3271889388561249,0.3256528377532959,0.33026114106178284,0.34408602118492126,0.34562212228775024,0.3425499200820923,0.34408602118492126,0.3486943244934082,0.3364055156707764,0.3164362609386444,0.29646697640419006,0.2841781973838806,0.2703533172607422,0.2534562349319458,0.24577572941780088,0.24423962831497192,0.24116744101047516,0.23502303659915924,0.23041474819183347,0.23348695039749143,0.2380952388048172,0.23195084929466248,0.2380952388048172,0.24731183052062988,0.2519201338291168,0.2519201338291168,0.2534562349319458,0.25960060954093933,0.2626728117465973,0.2549923062324524,0.25806450843811035,0.25806450843811035,0.2626728117465973,0.2519201338291168,0.2519201338291168,0.2534562349319458,0.25806450843811035,0.24731183052062988,0.24423962831497192,0.25038403272628784,0.2519201338291168,0.2488479316234589,0.24270352721214292,0.2488479316234589,0.2519201338291168,0.24577572941780088,0.2519201338291168,0.26574501395225525,0.27496159076690674,0.27649769186973566,0.2872503697872162,0.299539178609848,0.2933947741985321,0.2872503697872162,0.2857142984867096,0.2887864708900452,0.2795698940753937,0.25960060954093933,0.24423962831497192,0.24731183052062988,0.24423962831497192,0.24270352721214292,0.23963133990764615,0.24270352721214292,0.24270352721214292,0.2380952388048172,0.24116744101047516,0.2488479316234589,0.2549923062324524,0.25806450843811035,0.26574501395225525,0.3087557554244995,0.4685099720954895,0.7910906076431273,1.0,0.6129032373428345,0.024577572941780087,0.07066052407026291,0.2780337929725647,0.30568355321884155,0.2795698940753937,0.2718893885612488,0.27496159076690674,0.28264209628105164,0.2795698940753937,0.2780337929725647,0.2780337929725647,0.28264209628105164,0.2872503697872162,0.28264209628105164,0.28110599517822266,0.2887864708900452,0.2918586730957031,0.2872503697872162,0.0,0.0,0.0,0.0,0.0,0.0,0.0,0.0,0.0,0.0,0.0,0.0,0.0,0.0,0.0,0.0,0.0,0.0,0.0,0.0,0.0,0.0,0.0,0.0,0.0,0.0,0.0,0.0,0.0,0.0,0.0,0.0,0.0,0.0,0.0,0.0,0.0,0.0,0.0,0.0,0.0,0.0,0.0,0.0,0.0,0.0,0.0,0.0,0.0,0.0,0.0,0.0,0.0,0.0,0.0,0.0,0.0,0.0,0.0
1.0,0.7972602844238281,0.3205479383468628,0.04383561760187149,0.049315068870782845,0.06575342267751694,0.030136985704302788,0.008219177834689617,0.005479452200233936,0.010958904400467873,0.013698630034923552,0.0,0.002739726100116968,0.016438355669379234,0.010958904400467873,0.013698630034923552,0.010958904400467873,0.024657534435391423,0.021917808800935745,0.019178081303834915,0.024657534435391423,0.049315068870782845,0.049315068870782845,0.04109589010477065,0.04383561760187149,0.05753424763679504,0.06301369518041611,0.049315068870782845,0.05205479636788368,0.06575342267751694,0.06575342267751694,0.07397260516881943,0.08493150770664215,0.11232876777648924,0.11232876777648924,0.0904109552502632,0.09589041024446487,0.09863013774156569,0.0904109552502632,0.0821917802095413,0.08493150770664215,0.09315068274736403,0.09315068274736403,0.0904109552502632,0.09589041024446487,0.09589041024446487,0.09589041024446487,0.09315068274736403,0.0904109552502632,0.10136986523866652,0.09589041024446487,0.10136986523866652,0.08767123520374298,0.10136986523866652,0.09863013774156569,0.09863013774156569,0.1260273903608322,0.15342465043067932,0.1698630154132843,0.1808219105005264,0.1890410929918289,0.1808219105005264,0.17260274291038513,0.1369863003492355,0.08767123520374298,0.08493150770664215,0.07671232521533966,0.05479452013969421,0.05205479636788368,0.06301369518041611,0.05753424763679504,0.0356164388358593,0.07945205271244049,0.32602739334106445,0.7479451894760131,1.0,0.7397260069847107,0.2630136907100677,0.05753424763679504,0.05753424763679504,0.06849315017461777,0.0356164388358593,0.019178081303834915,0.016438355669379234,0.019178081303834915,0.010958904400467873,0.008219177834689617,0.013698630034923552,0.016438355669379234,0.019178081303834915,0.021917808800935745,0.0,0.0,0.0,0.0,0.0,0.0,0.0,0.0,0.0,0.0,0.0,0.0,0.0,0.0,0.0,0.0,0.0,0.0,0.0,0.0,0.0,0.0,0.0,0.0,0.0,0.0,0.0,0.0,0.0,0.0,0.0,0.0,0.0,0.0,0.0,0.0,0.0,0.0,0.0,0.0,0.0,0.0,0.0,0.0,0.0,0.0,0.0,0.0,0.0,0.0,0.0,0.0,0.0,0.0,0.0,0.0,0.0,0.0,0.0,0.0,0.0,0.0,0.0,0.0,0.0,0.0,0.0,0.0,0.0,0.0,0.0,0.0,0.0,0.0,0.0,0.0,0.0,0.0,0.0,0.0,0.0,0.0,0.0,0.0,0.0,0.0,0.0,0.0,0.0,0.0,0.0,0.0,0.0,0.0,0.0,0.0,0.0
0.0,0.041198503226041794,0.11235955357551573,0.14606741070747375,0.2022471874952316,0.32209739089012146,0.3632958829402924,0.41385766863822937,0.42696627974510193,0.4850187301635742,0.5112359523773192,0.5205992460250854,0.5486891269683838,0.5992509126663208,0.6067415475845337,0.6404494643211365,0.6647940278053284,0.730337083339691,0.7808988690376282,0.8520599007606505,0.8970037698745726,0.9531835317611694,0.9700374603271484,1.0,0.9925093650817872,0.9850187301635742,0.9438202381134032,0.8988764286041259,0.8239700198173523,0.7528089880943297,0.7116104960441588,0.6666666865348816,0.6029962301254272,0.5767790079116821,0.5973782539367676,0.670412003993988,0.5955055952072144,0.5131086111068726,0.42322096228599543,0.2771535515785217,0.11985018849372864,0.08239700645208359,0.02247191034257412,0.03932584449648857,0.05430711433291435,0.06367041170597076,0.1985018700361252,0.30337077379226685,0.3558052480220794,0.0,0.0,0.0,0.0,0.0,0.0,0.0,0.0,0.0,0.0,0.0,0.0,0.0,0.0,0.0,0.0,0.0,0.0,0.0,0.0,0.0,0.0,0.0,0.0,0.0,0.0,0.0,0.0,0.0,0.0,0.0,0.0,0.0,0.0,0.0,0.0,0.0,0.0,0.0,0.0,0.0,0.0,0.0,0.0,0.0,0.0,0.0,0.0,0.0,0.0,0.0,0.0,0.0,0.0,0.0,0.0,0.0,0.0,0.0,0.0,0.0,0.0,0.0,0.0,0.0,0.0,0.0,0.0,0.0,0.0,0.0,0.0,0.0,0.0,0.0,0.0,0.0,0.0,0.0,0.0,0.0,0.0,0.0,0.0,0.0,0.0,0.0,0.0,0.0,0.0,0.0,0.0,0.0,0.0,0.0,0.0,0.0,0.0,0.0,0.0,0.0,0.0,0.0,0.0,0.0,0.0,0.0,0.0,0.0,0.0,0.0,0.0,0.0,0.0,0.0,0.0,0.0,0.0,0.0,0.0,0.0,0.0,0.0,0.0,0.0,0.0,0.0,0.0,0.0,0.0,0.0,0.0,0.0,0.0,0.0,0.0,0.0,0.0,2.0
0.5704697966575624,0.3993288576602936,0.23825503885746,0.14765100181102753,0.0,0.003355704713612795,0.04026845470070839,0.08053690940141676,0.07046979665756226,0.09060402959585187,0.08053690940141676,0.10402684658765791,0.09395973384380339,0.11744966357946396,0.09731543809175491,0.13422818481922147,0.12416107207536696,0.16107381880283356,0.17114093899726868,0.19463087618350983,0.20469798147678372,0.2617449760437012,0.2751677930355072,0.3322147727012634,0.34563758969306946,0.39597314596176153,0.40604028105735773,0.45637583732604975,0.44630873203277593,0.44630873203277593,0.3993288576602936,0.3691275119781494,0.3087248206138611,0.29530200362205505,0.2651006579399109,0.2718120813369751,0.25838926434516907,0.26845636963844294,0.2617449760437012,0.281879186630249,0.2718120813369751,0.29865771532058716,0.29194632172584534,0.31879195570945734,0.3120805323123932,0.3422818779945373,0.3255033493041992,0.34563758969306946,0.3322147727012634,0.3523489832878113,0.3355704843997956,0.3523489832878113,0.34563758969306946,0.36577180027961725,0.3557046949863434,0.3590604066848755,0.3489933013916016,0.36577180027961725,0.3489933013916016,0.3859060406684875,0.3758389353752136,0.4026845693588257,0.39261746406555176,0.4194630980491638,0.4026845693588257,0.4093959629535675,0.3859060406684875,0.3859060406684875,0.3489933013916016,0.3624161183834076,0.3322147727012634,0.3557046949863434,0.3120805323123932,0.34563758969306946,0.31879195570945734,0.3255033493041992,0.30536913871765137,0.3120805323123932,0.30201342701911926,0.3355704843997956,0.3120805323123932,0.32885906100273127,0.3120805323123932,0.3322147727012634,0.3221476376056671,0.3422818779945373,0.3590604066848755,0.449664443731308,0.5906040072441101,0.7214764952659608,0.6610738039016724,0.6140939593315125,0.744966447353363,0.9697986841201782,1.0,0.8255033493041992,0.6778523325920105,0.5335570573806763,0.30201342701911926,0.19463087618350983,0.1845637559890747,0.25167784094810486,0.24496644735336304,0.24832214415073395,0.22818791866302487,0.25838926434516907,0.231543630361557,0.24832214415073395,0.23489932715892792,0.2651006579399109,0.25503355264663696,0.2718120813369751,0.2651006579399109,0.28859061002731323,0.2785235047340393,0.0,0.0,0.0,0.0,0.0,0.0,0.0,0.0,0.0,0.0,0.0,0.0,0.0,0.0,0.0,0.0,0.0,0.0,0.0,0.0,0.0,0.0,0.0,0.0,0.0,0.0,0.0,0.0,0.0,0.0,0.0,0.0,0.0,0.0,0.0,0.0,0.0,0.0,0.0,0.0,0.0,0.0,0.0,0.0,0.0,0.0,0.0,0.0,0.0,0.0,0.0,0.0,0.0,0.0,0.0,0.0,0.0,0.0,0.0,0.0,0.0,0.0,0.0,0.0,0.0,0.0,0.0,0.0,0.0,0.0,0.0,0.0,0.0
0.9844720363616944,0.9627329111099244,0.6630434989929199,0.21118012070655823,0.0,0.032608695328235626,0.10093167424201964,0.17701862752437592,0.270186334848404,0.313664585351944,0.3074534237384796,0.3121117949485779,0.3121117949485779,0.313664585351944,0.31521740555763245,0.3198757767677307,0.31677019596099854,0.3121117949485779,0.313664585351944,0.3198757767677307,0.31677019596099854,0.3074534237384796,0.313664585351944,0.31521740555763245,0.31521740555763245,0.3229813575744629,0.33074533939361567,0.3431676924228668,0.3555900752544403,0.36645963788032526,0.3804347813129425,0.3944099247455597,0.4068323075771332,0.4068323075771332,0.41149067878723133,0.40527951717376715,0.39596274495124817,0.3773292005062103,0.3773292005062103,0.3788819909095764,0.3695652186870575,0.3633540272712708,0.36645963788032526,0.36645963788032526,0.3618012368679047,0.3571428656578064,0.36645963788032526,0.3695652186870575,0.3633540272712708,0.3618012368679047,0.36645963788032526,0.3726707994937897,0.3711180090904236,0.3695652186870575,0.3695652186870575,0.3788819909095764,0.36645963788032526,0.3571428656578064,0.3711180090904236,0.3757764101028442,0.3726707994937897,0.3649068176746368,0.3695652186870575,0.37422358989715576,0.3711180090904236,0.3726707994937897,0.3804347813129425,0.3897515535354614,0.3944099247455597,0.40838509798049927,0.4161490797996521,0.43944099545478815,0.45652174949646,0.4704968929290771,0.4518633484840393,0.4596273303031921,0.45341613888740534,0.4270186424255371,0.39906832575798035,0.3944099247455597,0.3695652186870575,0.35403725504875183,0.3633540272712708,0.3649068176746368,0.36645963788032526,0.3649068176746368,0.3881987631320953,0.5357142686843872,0.7344720363616942,0.9114906787872313,1.0,0.9192546606063842,0.6149068474769592,0.4068323075771332,0.3726707994937897,0.3493788838386536,0.31521740555763245,0.30434781312942505,0.313664585351944,0.3121117949485779,0.30434781312942505,0.2981366515159607,0.30124223232269287,0.3074534237384796,0.2981366515159607,0.0,0.0,0.0,0.0,0.0,0.0,0.0,0.0,0.0,0.0,0.0,0.0,0.0,0.0,0.0,0.0,0.0,0.0,0.0,0.0,0.0,0.0,0.0,0.0,0.0,0.0,0.0,0.0,0.0,0.0,0.0,0.0,0.0,0.0,0.0,0.0,0.0,0.0,0.0,0.0,0.0,0.0,0.0,0.0,0.0,0.0,0.0,0.0,0.0,0.0,0.0,0.0,0.0,0.0,0.0,0.0,0.0,0.0,0.0,0.0,0.0,0.0,0.0,0.0,0.0,0.0,0.0,0.0,0.0,0.0,0.0,0.0,0.0,0.0,0.0,0.0,0.0,0.0,0.0,0.0,0.0,0.0,2.0
1.0,0.9659686088562013,0.7696335315704346,0.573298454284668,0.5235602259635925,0.5078533887863159,0.4672774970531464,0.4541884958744049,0.4620418846607208,0.4541884958744049,0.45026177167892456,0.4437172710895538,0.44895288348197937,0.4515706896781921,0.4437172710895538,0.44240838289260864,0.44109946489334106,0.43848168849945063,0.43455496430397034,0.4306282699108124,0.42277488112449646,0.41753926873207087,0.40706807374954224,0.395287960767746,0.3835078477859497,0.38219895958900446,0.3861256539821625,0.3808900415897369,0.3939790427684784,0.41884815692901606,0.4358638823032379,0.4528795778751373,0.4672774970531464,0.48952880501747126,0.5,0.48952880501747126,0.4973821938037872,0.5026177763938904,0.5091623067855834,0.5170156955718994,0.5418848395347595,0.5929319262504578,0.6439790725708008,0.7054973840713501,0.695026159286499,0.4712041914463043,0.1950261741876602,0.06806282699108124,0.011780104599893091,0.0,0.03272251412272453,0.11649214476346968,0.20157067477703092,0.2421465963125229,0.3023560345172882,0.38219895958900446,0.41884815692901606,0.4842931926250458,0.5811518430709839,0.6125654578208923,0.6020942330360413,0.6125654578208923,0.6191099286079407,0.6230366230010985,0.6387434601783752,0.6518324613571167,0.0,0.0,0.0,0.0,0.0,0.0,0.0,0.0,0.0,0.0,0.0,0.0,0.0,0.0,0.0,0.0,0.0,0.0,0.0,0.0,0.0,0.0,0.0,0.0,0.0,0.0,0.0,0.0,0.0,0.0,0.0,0.0,0.0,0.0,0.0,0.0,0.0,0.0,0.0,0.0,0.0,0.0,0.0,0.0,0.0,0.0,0.0,0.0,0.0,0.0,0.0,0.0,0.0,0.0,0.0,0.0,0.0,0.0,0.0,0.0,0.0,0.0,0.0,0.0,0.0,0.0,0.0,0.0,0.0,0.0,0.0,0.0,0.0,0.0,0.0,0.0,0.0,0.0,0.0,0.0,0.0,0.0,0.0,0.0,0.0,0.0,0.0,0.0,0.0,0.0,0.0,0.0,0.0,0.0,0.0,0.0,0.0,0.0,0.0,0.0,0.0,0.0,0.0,0.0,0.0,0.0,0.0,0.0,0.0,0.0,0.0,0.0,0.0,0.0,0.0,0.0,0.0,0.0,0.0,0.0,0.0,0.0
0.939814805984497,0.7916666865348816,0.19907407462596893,0.0,0.05555555596947669,0.10185185074806212,0.10648148506879807,0.14351852238178253,0.2222222238779068,0.18981482088565824,0.17129629850387573,0.1851851791143417,0.26851850748062134,0.3333333432674408,0.30092594027519226,0.2916666567325592,0.33796295523643494,0.32870370149612427,0.28703704476356506,0.30092594027519226,0.3194444477558136,0.3333333432674408,0.31481480598449707,0.32870370149612427,0.3657407462596893,0.375,0.3611111044883728,0.3657407462596893,0.4027777910232544,0.4305555522441864,0.4629629552364349,0.46759259700775146,0.5138888955116272,0.5601851940155029,0.5601851940155029,0.5648148059844971,0.5879629850387573,0.5694444179534912,0.504629611968994,0.4722222089767456,0.4583333432674408,0.4212962985038757,0.3703703582286834,0.32407405972480774,0.3194444477558136,0.3055555522441864,0.28703704476356506,0.2777777910232544,0.29629629850387573,0.3101851940155029,0.2546296417713165,0.2546296417713165,0.28703704476356506,0.28240740299224854,0.27314814925193787,0.27314814925193787,0.29629629850387573,0.2777777910232544,0.2638888955116272,0.25,0.2592592537403106,0.26851850748062134,0.2592592537403106,0.2592592537403106,0.28703704476356506,0.3101851940155029,0.29629629850387573,0.28240740299224854,0.30092594027519226,0.28240740299224854,0.25,0.29629629850387573,0.32870370149612427,0.28240740299224854,0.28240740299224854,0.2916666567325592,0.32407405972480774,0.3194444477558136,0.3055555522441864,0.29629629850387573,0.32407405972480774,0.3055555522441864,0.3101851940155029,0.3055555522441864,0.32870370149612427,0.33796295523643494,0.32870370149612427,0.3472222089767456,0.5,0.7916666865348816,1.0,0.4953703582286834,0.013888888992369173,0.05092592537403107,0.1111111119389534,0.10185185074806212,0.1388888955116272,0.2361111044883728,0.19907407462596893,0.1944444477558136,0.2361111044883728,0.28703704476356506,0.3194444477558136,0.32870370149612427,0.3333333432674408,0.3472222089767456,0.35185185074806213,0.33796295523643494,0.0,0.0,0.0,0.0,0.0,0.0,0.0,0.0,0.0,0.0,0.0,0.0,0.0,0.0,0.0,0.0,0.0,0.0,0.0,0.0,0.0,0.0,0.0,0.0,0.0,0.0,0.0,0.0,0.0,0.0,0.0,0.0,0.0,0.0,0.0,0.0,0.0,0.0,0.0,0.0,0.0,0.0,0.0,0.0,0.0,0.0,0.0,0.0,0.0,0.0,0.0,0.0,0.0,0.0,0.0,0.0,0.0,0.0,0.0,0.0,0.0,0.0,0.0,0.0,0.0,0.0,0.0,0.0,0.0,0.0,0.0,0.0,0.0,0.0,0.0,0.0,0.0,0.0,0.0,1.0
1.0,0.9007936716079714,0.4623015820980072,0.2083333283662796,0.170634925365448,0.1567460298538208,0.1468254029750824,0.130952388048172,0.1369047611951828,0.1349206417798996,0.144841268658638,0.1349206417798996,0.1527777761220932,0.1408730149269104,0.144841268658638,0.144841268658638,0.1587301641702652,0.1567460298538208,0.1567460298538208,0.1527777761220932,0.1805555522441864,0.1785714328289032,0.1984127014875412,0.1984127014875412,0.2182539701461792,0.2321428507566452,0.25,0.25,0.2519841194152832,0.2361111044883728,0.2182539701461792,0.2023809552192688,0.184523805975914,0.1666666716337204,0.1607142835855484,0.1527777761220932,0.1567460298538208,0.1527777761220932,0.1567460298538208,0.1468254029750824,0.1527777761220932,0.1527777761220932,0.170634925365448,0.164682537317276,0.1726190447807312,0.1746031790971756,0.1924603134393692,0.2341269850730896,0.3095238208770752,0.3968254029750824,0.5297619104385376,0.636904776096344,0.77182537317276,0.8670634627342224,0.8571428656578064,0.7579365372657776,0.7083333134651184,0.6527777910232544,0.6428571343421936,0.64682537317276,0.4841269850730896,0.230158731341362,0.1190476194024086,0.075396828353405,0.05952380970120429,0.029761904850602146,0.029761904850602146,0.011904762126505373,0.003968254197388888,0.0,0.0,0.0,0.0,0.0,0.0,0.0,0.0,0.0,0.0,0.0,0.0,0.0,0.0,0.0,0.0,0.0,0.0,0.0,0.0,0.0,0.0,0.0,0.0,0.0,0.0,0.0,0.0,0.0,0.0,0.0,0.0,0.0,0.0,0.0,0.0,0.0,0.0,0.0,0.0,0.0,0.0,0.0,0.0,0.0,0.0,0.0,0.0,0.0,0.0,0.0,0.0,0.0,0.0,0.0,0.0,0.0,0.0,0.0,0.0,0.0,0.0,0.0,0.0,0.0,0.0,0.0,0.0,0.0,0.0,0.0,0.0,0.0,0.0,0.0,0.0,0.0,0.0,0.0,0.0,0.0,0.0,0.0,0.0,0.0,0.0,0.0,0.0,0.0,0.0,0.0,0.0,0.0,0.0,0.0,0.0,0.0,0.0,0.0,0.0,0.0,0.0,0.0,0.0,0.0,0.0,0.0,0.0,0.0,0.0,0.0,0.0,0.0,0.0,0.0,0.0,0.0,0.0,3.0
0.9779116511344909,0.7911646366119384,0.0200803205370903,0.022088352590799328,0.00200803205370903,0.0301204826682806,0.0803212821483612,0.10441767424345016,0.10240963846445084,0.114457830786705,0.11044176667928696,0.1204819306731224,0.12248995900154112,0.1325301229953766,0.1204819306731224,0.14457830786705017,0.13453815877437592,0.14257028698921204,0.13855421543121335,0.14859437942504883,0.14658634364604947,0.1666666716337204,0.16265060007572174,0.17670682072639465,0.17469879984855652,0.19076305627822876,0.19477911293506625,0.21485944092273712,0.21887549757957456,0.24899598956108093,0.25100401043891907,0.2871485948562622,0.29919677972793574,0.33534136414527893,0.357429713010788,0.3895582258701325,0.41164657473564154,0.4457831382751465,0.4658634662628174,0.4939759075641632,0.5100401639938353,0.5240963697433472,0.5220883488655089,0.5020080208778381,0.443775087594986,0.38554215431213373,0.30321285128593445,0.24899598956108093,0.18273092806339264,0.14658634364604947,0.114457830786705,0.09638553857803343,0.07429718971252441,0.06827308982610703,0.05220883712172508,0.056224901229143136,0.04618473723530769,0.050200805068016045,0.04618473723530769,0.058232933282852166,0.038152609020471566,0.05421686917543411,0.050200805068016045,0.0602409653365612,0.05220883712172508,0.06425702571868896,0.0602409653365612,0.07028112560510635,0.0602409653365612,0.06827308982610703,0.058232933282852166,0.06827308982610703,0.056224901229143136,0.0602409653365612,0.05220883712172508,0.06224899739027023,0.04819276928901672,0.06224899739027023,0.04618473723530769,0.058232933282852166,0.04618473723530769,0.056224901229143136,0.04618473723530769,0.05220883712172508,0.04216867312788963,0.05421686917543411,0.0401606410741806,0.05220883712172508,0.050200805068016045,0.05421686917543411,0.04819276928901672,0.058232933282852166,0.04819276928901672,0.0602409653365612,0.050200805068016045,0.058232933282852166,0.05421686917543411,0.0602409653365612,0.0662650614976883,0.0863453820347786,0.08433734625577927,0.09036144614219664,0.09437751024961472,0.09638553857803343,0.08232931792736053,0.08232931792736053,0.058232933282852166,0.06827308982610703,0.058232933282852166,0.06425702571868896,0.0662650614976883,0.07831325381994246,0.07028112560510635,0.08835341036319731,0.0662650614976883,0.038152609020471566,0.07630521804094313,0.5140562057495117,1.0,0.8493975996971129,0.07831325381994246,0.014056225307285784,0.0,0.04618473723530769,0.09236947447061537,0.10843373835086823,0.10240963846445084,0.11244980245828629,0.10441767424345016,0.114457830786705,0.11646586656570435,0.12449799478054047,0.12248995900154112,0.13453815877437592,0.12449799478054047,0.13855421543121335,0.13453815877437592,0.15060241520404816,0.14859437942504883,0.15863454341888428,0.15863454341888428,0.17469879984855652,0.17670682072639465,0.19477911293506625,0.0,0.0,0.0,0.0,0.0,0.0,0.0,0.0,0.0,0.0,0.0,0.0,0.0,0.0,0.0,0.0,0.0,0.0,0.0,0.0,0.0,0.0,0.0,0.0,0.0,0.0,0.0,0.0,0.0,0.0,0.0,0.0,0.0,0.0,0.0,0.0,0.0,0.0,0.0,0.0,0.0,0.0,0.0,0.0
0.9140186905860899,0.9831775426864624,1.0,0.644859790802002,0.336448609828949,0.19439251720905304,0.15140186250209808,0.11962617188692092,0.11401869356632233,0.09906542301177977,0.09532710164785384,0.08037383109331131,0.07850467413663864,0.07289719581604005,0.07476635277271271,0.0635514035820961,0.059813085943460464,0.04112149402499199,0.035514019429683685,0.037383176386356354,0.037383176386356354,0.02242990583181381,0.02242990583181381,0.014953271485865116,0.03364485874772072,0.04485981166362762,0.06542056053876877,0.08224298804998396,0.1046728938817978,0.1271028071641922,0.16448597609996796,0.17757008969783783,0.1925233602523804,0.18317757546901703,0.1869158893823624,0.1738317757844925,0.1869158893823624,0.18504673242568967,0.19065420329570767,0.18504673242568967,0.1738317757844925,0.1869158893823624,0.19626168906688687,0.19065420329570767,0.19626168906688687,0.19065420329570767,0.19626168906688687,0.2037383168935776,0.2205607444047928,0.2560747563838959,0.30841121077537537,0.37383177876472473,0.47663551568984985,0.558878481388092,0.6523364782333374,0.7065420746803284,0.7588785290718079,0.7420560717582703,0.7065420746803284,0.6803738474845886,0.6803738474845886,0.6897196173667908,0.7327103018760681,0.6093457937240601,0.37009346485137934,0.20186915993690488,0.1383177638053894,0.10093457996845244,0.0859813094139099,0.061682242900133126,0.0635514035820961,0.04672897234559059,0.04485981166362762,0.03364485874772072,0.029906542971730232,0.005607476457953453,0.013084111735224724,0.0,0.0,0.0,0.0,0.0,0.0,0.0,0.0,0.0,0.0,0.0,0.0,0.0,0.0,0.0,0.0,0.0,0.0,0.0,0.0,0.0,0.0,0.0,0.0,0.0,0.0,0.0,0.0,0.0,0.0,0.0,0.0,0.0,0.0,0.0,0.0,0.0,0.0,0.0,0.0,0.0,0.0,0.0,0.0,0.0,0.0,0.0,0.0,0.0,0.0,0.0,0.0,0.0,0.0,0.0,0.0,0.0,0.0,0.0,0.0,0.0,0.0,0.0,0.0,0.0,0.0,0.0,0.0,0.0,0.0,0.0,0.0,0.0,0.0,0.0,0.0,0.0,0.0,0.0,0.0,0.0,0.0,0.0,0.0,0.0,0.0,0.0,0.0,0.0,0.0,0.0,0.0,0.0,0.0,0.0,0.0,0.0,0.0,0.0,0.0,0.0,0.0,0.0,0.0,0.0,0.0,0.0,0.0,0.0,0.0,3.0
1.0,0.9067164063453673,0.5261194109916687,0.1940298527479172,0.0746268630027771,0.06343283504247665,0.02238805964589119,0.02985074557363987,0.003731343196704984,0.011194029822945595,0.003731343196704984,0.026119403541088104,0.018656715750694275,0.033582091331481934,0.003731343196704984,0.02985074557363987,0.014925372786819935,0.02238805964589119,0.0074626863934099666,0.02985074557363987,0.02238805964589119,0.026119403541088104,0.011194029822945595,0.02985074557363987,0.0,0.02985074557363987,0.014925372786819935,0.04477611929178238,0.03731343150138855,0.0746268630027771,0.08208955079317092,0.12313432991504668,0.12313432991504668,0.15671642124652863,0.13805970549583435,0.16044776141643524,0.13805970549583435,0.15671642124652863,0.14552238583564758,0.1492537260055542,0.14179104566574097,0.14552238583564758,0.1268656700849533,0.13805970549583435,0.12313432991504668,0.1343283653259277,0.13059701025485992,0.14552238583564758,0.1492537260055542,0.17164179682731628,0.16791044175624847,0.18656715750694275,0.15671642124652863,0.18283581733703613,0.16044776141643524,0.16417910158634183,0.1492537260055542,0.16044776141643524,0.14179104566574097,0.152985081076622,0.13059701025485992,0.1492537260055542,0.13805970549583435,0.152985081076622,0.14179104566574097,0.14552238583564758,0.13059701025485992,0.14552238583564758,0.1492537260055542,0.1753731369972229,0.16044776141643524,0.18656715750694275,0.15671642124652863,0.17164179682731628,0.15671642124652863,0.15671642124652863,0.14552238583564758,0.16417910158634183,0.14179104566574097,0.152985081076622,0.1343283653259277,0.152985081076622,0.14552238583564758,0.16044776141643524,0.1492537260055542,0.15671642124652863,0.1492537260055542,0.17164179682731628,0.152985081076622,0.152985081076622,0.12313432991504668,0.152985081076622,0.15671642124652863,0.16044776141643524,0.15671642124652863,0.16417910158634183,0.1343283653259277,0.16044776141643524,0.14179104566574097,0.14179104566574097,0.14179104566574097,0.1492537260055542,0.1492537260055542,0.16044776141643524,0.14179104566574097,0.17164179682731628,0.1492537260055542,0.1753731369972229,0.1753731369972229,0.19029851257801053,0.16417910158634183,0.17164179682731628,0.1492537260055542,0.16417910158634183,0.16417910158634183,0.3246268630027771,0.5335820913314819,0.7425373196601868,0.9067164063453673,0.8843283653259277,0.7201492786407471,0.33955225348472595,0.17910447716712952,0.1044776141643524,0.08208955079317092,0.06716418266296387,0.05597015097737312,0.0783582106232643,0.05597015097737312,0.05970149114727974,0.04104477539658546,0.02985074557363987,0.0074626863934099666,0.014925372786819935,0.003731343196704984,0.0,0.0,0.0,0.0,0.0,0.0,0.0,0.0,0.0,0.0,0.0,0.0,0.0,0.0,0.0,0.0,0.0,0.0,0.0,0.0,0.0,0.0,0.0,0.0,0.0,0.0,0.0,0.0,0.0,0.0,0.0,0.0,0.0,0.0,0.0,0.0,0.0,0.0,0.0,0.0,0.0,0.0,0.0,0.0,0.0,0.0,0.0,0.0,0.0,0.0,0.0,0.0,0.0
0.7917525768280029,0.5257731676101685,0.22886598110198972,0.1608247458934784,0.15257732570171356,0.15257732570171356,0.1319587677717209,0.1381443291902542,0.12577319145202637,0.14020618796348572,0.1340206116437912,0.15051546692848203,0.14020618796348572,0.15051546692848203,0.1381443291902542,0.1608247458934784,0.15670102834701538,0.1649484485387802,0.17319588363170624,0.18144330382347104,0.18350514769554135,0.21030928194522855,0.2144329845905304,0.23505154252052307,0.2453608214855194,0.2659793794155121,0.2659793794155121,0.2927834987640381,0.2948453724384308,0.3195876181125641,0.3134020566940308,0.3134020566940308,0.2824742197990417,0.27835050225257874,0.23917526006698608,0.23092783987522125,0.18969072401523593,0.17938144505023956,0.15257732570171356,0.16288660466670987,0.14639174938201904,0.15670102834701538,0.1360824704170227,0.14639174938201904,0.1381443291902542,0.15257732570171356,0.1360824704170227,0.14639174938201904,0.12989690899848935,0.14020618796348572,0.1340206116437912,0.15257732570171356,0.15670102834701538,0.17525772750377655,0.18144330382347104,0.20412370562553403,0.19793814420700076,0.1958762854337692,0.17319588363170624,0.15051546692848203,0.1319587677717209,0.17319588363170624,0.23711340129375455,0.3237113356590271,0.4164948463439941,0.5360824465751648,0.6350515484809875,0.7216494679450989,0.8350515365600587,0.9216494560241699,1.0,0.9134020805358887,0.4556700885295868,0.1958762854337692,0.09484536200761795,0.06391752511262894,0.022680412977933884,0.014432989992201328,0.0,0.0,0.0,0.0,0.0,0.0,0.0,0.0,0.0,0.0,0.0,0.0,0.0,0.0,0.0,0.0,0.0,0.0,0.0,0.0,0.0,0.0,0.0,0.0,0.0,0.0,0.0,0.0,0.0,0.0,0.0,0.0,0.0,0.0,0.0,0.0,0.0,0.0,0.0,0.0,0.0,0.0,0.0,0.0,0.0,0.0,0.0,0.0,0.0,0.0,0.0,0.0,0.0,0.0,0.0,0.0,0.0,0.0,0.0,0.0,0.0,0.0,0.0,0.0,0.0,0.0,0.0,0.0,0.0,0.0,0.0,0.0,0.0,0.0,0.0,0.0,0.0,0.0,0.0,0.0,0.0,0.0,0.0,0.0,0.0,0.0,0.0,0.0,0.0,0.0,0.0,0.0,0.0,0.0,0.0,0.0,0.0,0.0,0.0,0.0,0.0,0.0,0.0,0.0,0.0,0.0,0.0,0.0,0.0,0.0
1.0,0.9142300486564637,0.4736842215061188,0.0,0.06432748585939407,0.317738801240921,0.40545809268951416,0.3918128609657288,0.3820662796497345,0.401559442281723,0.4191033244132996,0.43664717674255366,0.4483430683612824,0.45614033937454224,0.471734881401062,0.48538011312484736,0.5009746551513672,0.5146198868751526,0.528265118598938,0.545808970928192,0.5575048923492432,0.5789473652839661,0.5984405279159546,0.6023392081260681,0.61208575963974,0.6159843802452089,0.6218323707580566,0.6101364493370056,0.5945419073104857,0.5847952961921692,0.5886939764022827,0.5692007541656494,0.5516569018363953,0.5341130495071411,0.5204678177833557,0.4951266944408417,0.471734881401062,0.46393761038780207,0.4541910290718079,0.4483430683612824,0.446393758058548,0.4424951374530792,0.446393758058548,0.4424951374530792,0.4424951374530792,0.4346978664398193,0.44054579734802246,0.4327485263347626,0.42495125532150263,0.42105263471603394,0.4230019450187683,0.4191033244132996,0.4132553637027741,0.40935671329498285,0.40935671329498285,0.40545809268951416,0.39961013197898865,0.40545809268951416,0.4230019450187683,0.43079921603202814,0.43664717674255366,0.43664717674255366,0.45224171876907354,0.4619883000850677,0.45614033937454224,0.4444444477558136,0.4327485263347626,0.4113060534000397,0.39376217126846313,0.3898635506629944,0.38401558995246887,0.3820662796497345,0.37816762924194336,0.38011696934700007,0.3859649002552032,0.3859649002552032,0.3918128609657288,0.39766082167625433,0.4132553637027741,0.42495125532150263,0.45808967947959894,0.5477582812309265,0.7212475538253784,0.8693957328796386,0.8421052694320679,0.528265118598938,0.13450291752815247,0.08966861665248871,0.2846003770828247,0.4035087823867798,0.42105263471603394,0.4171539843082428,0.42105263471603394,0.42690059542655934,0.43079921603202814,0.4327485263347626,0.4346978664398193,0.45224171876907354,0.4658869504928589,0.4756335318088531,0.0,0.0,0.0,0.0,0.0,0.0,0.0,0.0,0.0,0.0,0.0,0.0,0.0,0.0,0.0,0.0,0.0,0.0,0.0,0.0,0.0,0.0,0.0,0.0,0.0,0.0,0.0,0.0,0.0,0.0,0.0,0.0,0.0,0.0,0.0,0.0,0.0,0.0,0.0,0.0,0.0,0.0,0.0,0.0,0.0,0.0,0.0,0.0,0.0,0.0,0.0,0.0,0.0,0.0,0.0,0.0,0.0,0.0,0.0,0.0,0.0,0.0,0.0,0.0,0.0,0.0,0.0,0.0,0.0,0.0,0.0,0.0,0.0,0.0,0.0,0.0,0.0,0.0,0.0,0.0,0.0,0.0,0.0,0.0,0.0,0.0,0.0,0.0
1.0,0.7589820623397827,0.473053902387619,0.193113774061203,0.1422155648469925,0.17664670944213867,0.16167664527893066,0.1422155648469925,0.121257483959198,0.10778442770242692,0.09580838680267333,0.07934131473302841,0.07634730637073517,0.06137724593281746,0.053892213851213455,0.05838323384523392,0.056886225938797,0.05988023802638054,0.07934131473302841,0.09431137889623642,0.11526945978403091,0.14970059692859647,0.17664670944213867,0.23353293538093567,0.28143712878227234,0.30838322639465326,0.351796418428421,0.378742516040802,0.3922155797481537,0.40419161319732666,0.3997006118297577,0.39520958065986633,0.38323354721069336,0.3577844202518463,0.351796418428421,0.344311386346817,0.31137725710868835,0.29191616177558893,0.27544909715652466,0.26047903299331665,0.2544910311698913,0.23802395164966583,0.2440119832754135,0.25299400091171265,0.25,0.2544910311698913,0.2634730637073517,0.26047903299331665,0.264970064163208,0.2559880316257477,0.24700598418712613,0.2559880316257477,0.24700598418712613,0.23952095210552213,0.24700598418712613,0.2440119832754135,0.2440119832754135,0.235029935836792,0.23353293538093567,0.24700598418712613,0.23952095210552213,0.2200598865747452,0.2200598865747452,0.23802395164966583,0.24550898373126984,0.23353293538093567,0.2365269511938095,0.2514970004558563,0.22455090284347531,0.20359280705451965,0.2185628712177277,0.2095808386802673,0.2065868228673935,0.20209580659866333,0.21107783913612363,0.22455090284347531,0.21107783913612363,0.1976047903299332,0.20359280705451965,0.405688613653183,0.772455096244812,0.9745509028434752,0.7365269660949707,0.3802395164966583,0.11976047605276108,0.0,0.0778443142771721,0.13173653185367584,0.11676646769046783,0.10179640352725983,0.1002994030714035,0.10179640352725983,0.09580838680267333,0.08682634681463242,0.10479041934013365,0.0,0.0,0.0,0.0,0.0,0.0,0.0,0.0,0.0,0.0,0.0,0.0,0.0,0.0,0.0,0.0,0.0,0.0,0.0,0.0,0.0,0.0,0.0,0.0,0.0,0.0,0.0,0.0,0.0,0.0,0.0,0.0,0.0,0.0,0.0,0.0,0.0,0.0,0.0,0.0,0.0,0.0,0.0,0.0,0.0,0.0,0.0,0.0,0.0,0.0,0.0,0.0,0.0,0.0,0.0,0.0,0.0,0.0,0.0,0.0,0.0,0.0,0.0,0.0,0.0,0.0,0.0,0.0,0.0,0.0,0.0,0.0,0.0,0.0,0.0,0.0,0.0,0.0,0.0,0.0,0.0,0.0,0.0,0.0,0.0,0.0,0.0,0.0,0.0,0.0,0.0,0.0,1.0
0.9397363662719727,0.994350254535675,0.5028248429298401,0.050847455859184265,0.03201506659388542,0.09039548039436339,0.08851224184036256,0.07721280306577681,0.07909604161977768,0.07721280306577681,0.06779661029577255,0.0659133717417717,0.0659133717417717,0.05838041380047798,0.050847455859184265,0.04896421730518341,0.05273069813847542,0.04143126308917999,0.03201506659388542,0.02636534906923771,0.03201506659388542,0.028248587623238564,0.011299435049295424,0.0075329565443098545,0.011299435049295424,0.001883239136077464,0.0,0.0,0.015065913088619707,0.030131826177239415,0.03578154370188713,0.05838041380047798,0.09039548039436339,0.10357815772294998,0.11299435049295424,0.12241054326295853,0.14500941336154935,0.1393596976995468,0.1393596976995468,0.14124293625354767,0.1393596976995468,0.14500941336154935,0.13747645914554596,0.1280602663755417,0.13370998203754425,0.13370998203754425,0.12994350492954254,0.12617702782154083,0.1280602663755417,0.12429378181695938,0.1111111119389534,0.10546139627695084,0.1148775890469551,0.1111111119389534,0.10169491171836852,0.10169491171836852,0.1111111119389534,0.11299435049295424,0.1111111119389534,0.12241054326295853,0.13747645914554596,0.14312617480754852,0.14312617480754852,0.15065912902355194,0.17702448368072507,0.18644067645072937,0.18644067645072937,0.1845574378967285,0.1807909607887268,0.16384181380271912,0.14312617480754852,0.1318267434835434,0.12429378181695938,0.12241054326295853,0.12052730470895769,0.12052730470895769,0.12429378181695938,0.13370998203754425,0.1355932205915451,0.1525423675775528,0.21092279255390167,0.3201506733894348,0.5065913200378418,0.7401130199432373,0.9453860521316528,1.0,0.4896421730518341,0.03766478225588799,0.03954802080988884,0.09604519605636595,0.08286252617835999,0.06967984884977341,0.07156308740377426,0.06967984884977341,0.06026365235447884,0.05461393669247627,0.06214689090847969,0.06026365235447884,0.05273069813847542,0.04143126308917999,0.0,0.0,0.0,0.0,0.0,0.0,0.0,0.0,0.0,0.0,0.0,0.0,0.0,0.0,0.0,0.0,0.0,0.0,0.0,0.0,0.0,0.0,0.0,0.0,0.0,0.0,0.0,0.0,0.0,0.0,0.0,0.0,0.0,0.0,0.0,0.0,0.0,0.0,0.0,0.0,0.0,0.0,0.0,0.0,0.0,0.0,0.0,0.0,0.0,0.0,0.0,0.0,0.0,0.0,0.0,0.0,0.0,0.0,0.0,0.0,0.0,0.0,0.0,0.0,0.0,0.0,0.0,0.0,0.0,0.0,0.0,0.0,0.0,0.0,0.0,0.0,0.0,0.0,0.0,0.0,0.0,0.0,0.0,0.0,0.0,0.0,0.0,0.0
1.0,0.746835470199585,0.10632911324501036,0.07088607549667358,0.050632912665605545,0.030379746109247208,0.010126582346856594,0.015189873054623604,0.0,0.060759492218494415,0.10886076092720032,0.22025316953659055,0.2683544158935547,0.2936708927154541,0.30886074900627136,0.324050635099411,0.30886074900627136,0.351898729801178,0.34936708211898804,0.3645569682121277,0.3670886158943176,0.4101265966892242,0.41265821456909174,0.4430379867553711,0.4582278430461884,0.4835442900657654,0.48860758543014526,0.5265823006629944,0.5367088317871094,0.5569620132446289,0.5468354225158691,0.5341772437095642,0.48607593774795527,0.4430379867553711,0.39493671059608454,0.3594936728477478,0.29620254039764404,0.29620254039764404,0.25569620728492737,0.2506329119205475,0.23037974536418915,0.2329113930463791,0.2151898741722107,0.2278480976819992,0.22025316953659055,0.23797468841075897,0.21265822649002075,0.2329113930463791,0.22025316953659055,0.2329113930463791,0.2253164499998093,0.23797468841075897,0.2253164499998093,0.2430379688739777,0.23797468841075897,0.2430379688739777,0.23037974536418915,0.2430379688739777,0.22025316953659055,0.23037974536418915,0.24050633609294889,0.2810126543045044,0.2810126543045044,0.3113923966884613,0.3417721390724182,0.3670886158943176,0.34936708211898804,0.35696202516555786,0.3037974536418915,0.2506329119205475,0.21265822649002075,0.2227848172187805,0.18987341225147247,0.18987341225147247,0.18227848410606384,0.18734177947044367,0.1670886129140854,0.2050632983446121,0.19746835529804227,0.2101265788078308,0.2253164499998093,0.34936708211898804,0.5822784900665283,0.9113923907279968,0.8126582503318786,0.18987341225147247,0.037974681705236435,0.08607594668865204,0.02531645633280277,0.007594936527311803,0.017721518874168396,0.02278481051325798,0.017721518874168396,0.08860759437084198,0.1620253175497055,0.24810126423835757,0.25822785496711725,0.29620254039764404,0.29620254039764404,0.0,0.0,0.0,0.0,0.0,0.0,0.0,0.0,0.0,0.0,0.0,0.0,0.0,0.0,0.0,0.0,0.0,0.0,0.0,0.0,0.0,0.0,0.0,0.0,0.0,0.0,0.0,0.0,0.0,0.0,0.0,0.0,0.0,0.0,0.0,0.0,0.0,0.0,0.0,0.0,0.0,0.0,0.0,0.0,0.0,0.0,0.0,0.0,0.0,0.0,0.0,0.0,0.0,0.0,0.0,0.0,0.0,0.0,0.0,0.0,0.0,0.0,0.0,0.0,0.0,0.0,0.0,0.0,0.0,0.0,0.0,0.0,0.0,0.0,0.0,0.0,0.0,0.0,0.0,0.0,0.0,0.0,0.0,0.0,0.0,0.0,0.0,0.0,0.0
1.0,0.8924731016159058,0.342293918132782,0.0,0.1505376398563385,0.256272405385971,0.26523298025131226,0.28315412998199463,0.2795698940753937,0.2813619971275329,0.28315412998199463,0.28315412998199463,0.2795698940753937,0.2867383658885956,0.2867383658885956,0.2813619971275329,0.2759856581687927,0.29032257199287415,0.29032257199287415,0.28315412998199463,0.28315412998199463,0.2939068078994751,0.29749104380607605,0.28853046894073486,0.2867383658885956,0.30645161867141724,0.31003585457801813,0.30824372172355646,0.31182795763015747,0.32974910736083984,0.33870968222618103,0.34587812423706055,0.35304659605026245,0.3745519816875458,0.3942652344703674,0.39964157342910767,0.4103942513465881,0.43189963698387146,0.4372759759426117,0.44265231490135193,0.44086021184921265,0.43906810879707336,0.42293906211853033,0.3942652344703674,0.3691756129264832,0.3566308319568634,0.34587812423706055,0.3189964294433594,0.31003585457801813,0.3172042965888977,0.31362006068229675,0.29928314685821533,0.301075279712677,0.3028673827648163,0.30645161867141724,0.2939068078994751,0.2956989109516144,0.301075279712677,0.30824372172355646,0.29928314685821533,0.29928314685821533,0.31003585457801813,0.30645161867141724,0.29928314685821533,0.301075279712677,0.31003585457801813,0.31182795763015747,0.3028673827648163,0.28853046894073486,0.301075279712677,0.3028673827648163,0.2939068078994751,0.28853046894073486,0.2921147048473358,0.29928314685821533,0.2939068078994751,0.28853046894073486,0.29749104380607605,0.2921147048473358,0.28853046894073486,0.2813619971275329,0.2849462330341339,0.29032257199287415,0.2795698940753937,0.2706093192100525,0.2777777910232544,0.28315412998199463,0.2777777910232544,0.27419355511665344,0.2759856581687927,0.2813619971275329,0.2724014222621918,0.2759856581687927,0.28315412998199463,0.28315412998199463,0.2759856581687927,0.2706093192100525,0.2759856581687927,0.2849462330341339,0.2724014222621918,0.2706093192100525,0.28315412998199463,0.2849462330341339,0.2759856581687927,0.2706093192100525,0.2813619971275329,0.28853046894073486,0.2724014222621918,0.2759856581687927,0.2759856581687927,0.2849462330341339,0.2795698940753937,0.2759856581687927,0.2921147048473358,0.3172042965888977,0.31182795763015747,0.3189964294433594,0.33870968222618103,0.34408602118492126,0.3243727684020996,0.3154121935367584,0.32258063554763794,0.30824372172355646,0.28315412998199463,0.26702508330345154,0.259856641292572,0.26523298025131226,0.25448027253150934,0.256272405385971,0.2634408473968506,0.26523298025131226,0.256272405385971,0.25268816947937006,0.26702508330345154,0.2688172161579132,0.259856641292572,0.26702508330345154,0.28315412998199463,0.29749104380607605,0.3315412104129791,0.519713282585144,0.774193525314331,0.9928315281867982,0.774193525314331,0.231182798743248,0.010752688162028788,0.17921146750450134,0.23655913770198825,0.2293906807899475,0.27419355511665344,0.2867383658885956,0.2706093192100525,0.26523298025131226,0.2777777910232544,0.2777777910232544,0.2724014222621918,0.2706093192100525,0.2813619971275329,0.28315412998199463,0.2813619971275329,0.2777777910232544,0.2867383658885956,0.28853046894073486,0.2777777910232544,0.2777777910232544,0.2849462330341339,0.29032257199287415,0.29032257199287415,0.2939068078994751,0.3046594858169556,0.0,0.0,0.0,0.0,0.0,0.0,0.0,0.0,0.0,0.0,0.0,0.0,0.0,0.0,0.0,0.0,0.0,0.0
1.0,0.9714285731315613,0.790062129497528,0.41987577080726624,0.11055900901556016,0.09813664853572845,0.11180124431848526,0.0782608687877655,0.052173912525177,0.04472049698233605,0.045962732285261154,0.019875776022672653,0.012422360479831696,0.012422360479831696,0.006211180239915848,0.0012422360014170408,0.0,0.006211180239915848,0.022360248491168026,0.02732919342815876,0.04844720661640167,0.06956521421670914,0.08819875866174698,0.11552795022726058,0.145341619849205,0.17639751732349396,0.21366459131240845,0.23975154757499692,0.269565224647522,0.31055900454521174,0.321739137172699,0.3242236077785492,0.3341614902019501,0.33788821101188654,0.33913043141365046,0.33043476939201355,0.3142857253551483,0.30683228373527527,0.2869565188884735,0.26459628343582153,0.25341615080833435,0.24099378287792203,0.22857142984867093,0.23726707696914673,0.2360248416662216,0.2360248416662216,0.24968944489955905,0.2484472095966339,0.24347825348377228,0.2583850920200348,0.27204969525337214,0.29192546010017395,0.313043475151062,0.3267080783843994,0.33167701959609985,0.313043475151062,0.269565224647522,0.2472049742937088,0.23726707696914673,0.23354037106037137,0.23850931227207184,0.2322981357574463,0.2360248416662216,0.2422360181808472,0.2322981357574463,0.2360248416662216,0.22981366515159607,0.31925466656684875,0.6037266850471497,0.8857142925262451,0.7788819670677185,0.45341613888740534,0.17515528202056885,0.042236026376485825,0.10683229565620422,0.16894410550594327,0.16521738469600675,0.15031056106090543,0.1540372669696808,0.15155279636383057,0.1416149139404297,0.15031056106090543,0.15279503166675568,0.0,0.0,0.0,0.0,0.0,0.0,0.0,0.0,0.0,0.0,0.0,0.0,0.0,0.0,0.0,0.0,0.0,0.0,0.0,0.0,0.0,0.0,0.0,0.0,0.0,0.0,0.0,0.0,0.0,0.0,0.0,0.0,0.0,0.0,0.0,0.0,0.0,0.0,0.0,0.0,0.0,0.0,0.0,0.0,0.0,0.0,0.0,0.0,0.0,0.0,0.0,0.0,0.0,0.0,0.0,0.0,0.0,0.0,0.0,0.0,0.0,0.0,0.0,0.0,0.0,0.0,0.0,0.0,0.0,0.0,0.0,0.0,0.0,0.0,0.0,0.0,0.0,0.0,0.0,0.0,0.0,0.0,0.0,0.0,0.0,0.0,0.0,0.0,0.0,0.0,0.0,0.0,0.0,0.0,0.0,0.0,0.0,0.0,0.0,0.0,0.0,0.0,0.0,0.0,3.0
1.0,0.9338422417640686,0.6310432553291321,0.18575063347816467,0.12722645699977875,0.1959287524223328,0.11959287524223328,0.04834605753421784,0.05343511328101158,0.07379134744405745,0.07124681770801544,0.0661577582359314,0.07379134744405745,0.09160305559635161,0.08142493665218353,0.07888040691614151,0.07379134744405745,0.0890585258603096,0.08142493665218353,0.07633587718009949,0.07633587718009949,0.09414758533239363,0.09414758533239363,0.07888040691614151,0.09923664480447768,0.1119592860341072,0.11704834550619124,0.10178116708993912,0.12468193471431732,0.13740457594394684,0.15267175436019895,0.1323155164718628,0.14758269488811493,0.14758269488811493,0.16030533611774445,0.14249363541603088,0.16030533611774445,0.14249363541603088,0.16284987330436707,0.1348600536584854,0.14758269488811493,0.13740457594394684,0.15267175436019895,0.11704834550619124,0.1348600536584854,0.12722645699977875,0.12977099418640137,0.10178116708993912,0.10687022656202316,0.10432569682598114,0.10432569682598114,0.09923664480447768,0.09669211506843568,0.10432569682598114,0.10941475629806519,0.10432569682598114,0.10687022656202316,0.13740457594394684,0.1119592860341072,0.12977099418640137,0.12722645699977875,0.1704834550619125,0.16284987330436707,0.19083969295024872,0.21628499031066892,0.24427480995655057,0.23155216872692108,0.23918575048446652,0.19083969295024872,0.21628499031066892,0.18575063347816467,0.1552162915468216,0.12213740497827529,0.12722645699977875,0.10432569682598114,0.10687022656202316,0.10178116708993912,0.11450381577014924,0.10432569682598114,0.0559796430170536,0.0,0.04325699806213378,0.28498727083206177,0.5445292592048645,0.816793918609619,0.961832046508789,0.961832046508789,0.8142493367195129,0.41730278730392456,0.09669211506843568,0.15267175436019895,0.1348600536584854,0.08396946638822556,0.04834605753421784,0.06870228797197342,0.038167938590049744,0.05343511328101158,0.06106870248913765,0.06870228797197342,0.04325699806213378,0.06106870248913765,0.0661577582359314,0.06106870248913765,0.0,0.0,0.0,0.0,0.0,0.0,0.0,0.0,0.0,0.0,0.0,0.0,0.0,0.0,0.0,0.0,0.0,0.0,0.0,0.0,0.0,0.0,0.0,0.0,0.0,0.0,0.0,0.0,0.0,0.0,0.0,0.0,0.0,0.0,0.0,0.0,0.0,0.0,0.0,0.0,0.0,0.0,0.0,0.0,0.0,0.0,0.0,0.0,0.0,0.0,0.0,0.0,0.0,0.0,0.0,0.0,0.0,0.0,0.0,0.0,0.0,0.0,0.0,0.0,0.0,0.0,0.0,0.0,0.0,0.0,0.0,0.0,0.0,0.0,0.0,0.0,0.0,0.0,0.0,0.0,0.0,0.0,0.0,0.0,0.0
0.9728395342826844,0.7283950448036195,0.0,0.037037037312984473,0.16296295821666715,0.14320987462997437,0.12345679104328156,0.1407407373189926,0.13333334028720856,0.0962962955236435,0.09876543283462524,0.07901234924793243,0.09382715821266174,0.08395061641931532,0.10617283731698988,0.11851851642131804,0.15802469849586487,0.12839506566524503,0.13827160000801086,0.1259259283542633,0.14567901194095612,0.17530864477157593,0.202469140291214,0.202469140291214,0.23456789553165436,0.23703703284263608,0.22469136118888852,0.20000000298023224,0.19012345373630524,0.16296295821666715,0.12839506566524503,0.12345679104328156,0.1111111119389534,0.0962962955236435,0.1160493791103363,0.09382715821266174,0.11851851642131804,0.1259259283542633,0.12345679104328156,0.1259259283542633,0.13827160000801086,0.12345679104328156,0.1407407373189926,0.14320987462997437,0.1827160567045212,0.3777777850627899,0.7283950448036195,1.0,0.63456791639328,0.01975308731198311,0.07654321193695068,0.17777778208255768,0.17283950746059415,0.1358024626970291,0.12839506566524503,0.11851851642131804,0.0,0.0,0.0,0.0,0.0,0.0,0.0,0.0,0.0,0.0,0.0,0.0,0.0,0.0,0.0,0.0,0.0,0.0,0.0,0.0,0.0,0.0,0.0,0.0,0.0,0.0,0.0,0.0,0.0,0.0,0.0,0.0,0.0,0.0,0.0,0.0,0.0,0.0,0.0,0.0,0.0,0.0,0.0,0.0,0.0,0.0,0.0,0.0,0.0,0.0,0.0,0.0,0.0,0.0,0.0,0.0,0.0,0.0,0.0,0.0,0.0,0.0,0.0,0.0,0.0,0.0,0.0,0.0,0.0,0.0,0.0,0.0,0.0,0.0,0.0,0.0,0.0,0.0,0.0,0.0,0.0,0.0,0.0,0.0,0.0,0.0,0.0,0.0,0.0,0.0,0.0,0.0,0.0,0.0,0.0,0.0,0.0,0.0,0.0,0.0,0.0,0.0,0.0,0.0,0.0,0.0,0.0,0.0,0.0,0.0,0.0,0.0,0.0,0.0,0.0,0.0,0.0,0.0,0.0,0.0,0.0,0.0,0.0,0.0,0.0,0.0,0.0,0.0,0.0,0.0,0.0,1.0
1.0,0.9866412281990051,0.6545801758766174,0.35305342078208923,0.23091602325439453,0.1564885526895523,0.13740457594394684,0.11832061409950256,0.10877862572669982,0.09541984647512437,0.09732824563980103,0.08015266805887222,0.08587786555290222,0.06870228797197342,0.05916030704975128,0.043893128633499146,0.045801527798175805,0.02099236659705639,0.024809161201119423,0.007633587811142206,0.009541984647512438,0.0,0.011450381949543951,0.011450381949543951,0.04198473319411278,0.05343511328101158,0.10114503651857376,0.11450381577014924,0.16030533611774445,0.18702289462089536,0.21755725145339963,0.22328244149684903,0.2385496199131012,0.23282442986965177,0.24236641824245447,0.2404580116271973,0.25190839171409607,0.24809160828590396,0.25190839171409607,0.25,0.25572520494461054,0.25,0.2614503800868988,0.2633587718009949,0.2690839767456054,0.2633587718009949,0.27671754360198975,0.2729007601737976,0.2843511402606964,0.28244274854660034,0.2843511402606964,0.3091602921485901,0.3492366373538971,0.40458014607429504,0.4809160232543945,0.5610687136650084,0.652671754360199,0.7061068415641785,0.805343508720398,0.8969465494155883,0.9312977194786072,0.843511462211609,0.805343508720398,0.767175555229187,0.7423664331436157,0.7270992398262024,0.6679389476776123,0.4961832165718079,0.29961833357810974,0.17938931286334991,0.15267175436019895,0.12213740497827529,0.10877862572669982,0.08587786555290222,0.08396946638822556,0.05343511328101158,0.0,0.0,0.0,0.0,0.0,0.0,0.0,0.0,0.0,0.0,0.0,0.0,0.0,0.0,0.0,0.0,0.0,0.0,0.0,0.0,0.0,0.0,0.0,0.0,0.0,0.0,0.0,0.0,0.0,0.0,0.0,0.0,0.0,0.0,0.0,0.0,0.0,0.0,0.0,0.0,0.0,0.0,0.0,0.0,0.0,0.0,0.0,0.0,0.0,0.0,0.0,0.0,0.0,0.0,0.0,0.0,0.0,0.0,0.0,0.0,0.0,0.0,0.0,0.0,0.0,0.0,0.0,0.0,0.0,0.0,0.0,0.0,0.0,0.0,0.0,0.0,0.0,0.0,0.0,0.0,0.0,0.0,0.0,0.0,0.0,0.0,0.0,0.0,0.0,0.0,0.0,0.0,0.0,0.0,0.0,0.0,0.0,0.0,0.0,0.0,0.0,0.0,0.0,0.0,0.0,0.0,0.0,0.0,0.0,0.0,0.0,3.0
1.0,0.901785731315613,0.7607142925262451,0.6107142567634584,0.4660714268684387,0.3857142925262451,0.3642857074737549,0.3464285731315613,0.3142857253551483,0.3053571283817291,0.3089285790920257,0.3053571283817291,0.29107141494750977,0.2857142984867096,0.2839285731315613,0.27142858505249023,0.2553571462631225,0.26428571343421936,0.2607142925262451,0.2517857253551483,0.2410714328289032,0.22678571939468384,0.21785713732242584,0.20000000298023224,0.17321428656578064,0.16428571939468384,0.1607142835855484,0.15535713732242584,0.14107142388820648,0.14464285969734192,0.15535713732242584,0.16785714030265808,0.17499999701976776,0.19285714626312253,0.2232142835855484,0.2517857253551483,0.2553571462631225,0.2767857015132904,0.3107142746448517,0.3232142925262451,0.3232142925262451,0.32678571343421936,0.34285715222358704,0.3464285731315613,0.3392857015132904,0.34285715222358704,0.3482142984867096,0.3464285731315613,0.33571428060531616,0.33571428060531616,0.3392857015132904,0.3410714268684387,0.34285715222358704,0.3571428656578064,0.3589285612106323,0.3285714387893677,0.3089285790920257,0.36071428656578064,0.4553571343421936,0.4571428596973419,0.3660714328289032,0.2053571492433548,0.11428571492433548,0.04821428656578064,0.0,0.04107142984867096,0.10178571194410324,0.14642857015132904,0.1875,0.24642856419086456,0.3017857074737549,0.35178571939468384,0.3821428716182709,0.38749998807907104,0.39821428060531616,0.40714284777641296,0.40714284777641296,0.4107142984867096,0.4214285612106323,0.0,0.0,0.0,0.0,0.0,0.0,0.0,0.0,0.0,0.0,0.0,0.0,0.0,0.0,0.0,0.0,0.0,0.0,0.0,0.0,0.0,0.0,0.0,0.0,0.0,0.0,0.0,0.0,0.0,0.0,0.0,0.0,0.0,0.0,0.0,0.0,0.0,0.0,0.0,0.0,0.0,0.0,0.0,0.0,0.0,0.0,0.0,0.0,0.0,0.0,0.0,0.0,0.0,0.0,0.0,0.0,0.0,0.0,0.0,0.0,0.0,0.0,0.0,0.0,0.0,0.0,0.0,0.0,0.0,0.0,0.0,0.0,0.0,0.0,0.0,0.0,0.0,0.0,0.0,0.0,0.0,0.0,0.0,0.0,0.0,0.0,0.0,0.0,0.0,0.0,0.0,0.0,0.0,0.0,0.0,0.0,0.0,0.0,0.0,0.0,0.0,0.0,0.0,0.0,0.0,0.0,0.0,0.0,2.0
0.9947643876075744,0.7748690843582153,0.12303665280342102,0.0,0.17539267241954803,0.1963350772857666,0.1963350772857666,0.19109947979450223,0.19895288348197937,0.1963350772857666,0.20157067477703092,0.22774869203567505,0.24607330560684204,0.26178011298179626,0.2931937277317047,0.27486911416053766,0.31675392389297485,0.30890053510665894,0.3376963436603546,0.32460734248161316,0.31151831150054926,0.3141361176967621,0.3403141498565674,0.3481675386428833,0.3612565398216248,0.37172773480415344,0.3664921522140503,0.33507853746414185,0.30628272891044617,0.2853403091430664,0.28010472655296326,0.27486911416053766,0.26178011298179626,0.27486911416053766,0.30890053510665894,0.30366492271423334,0.24345549941062927,0.24607330560684204,0.2722513079643249,0.27486911416053766,0.2958115041255951,0.2853403091430664,0.2853403091430664,0.34554973244667053,0.6125654578208923,0.9869109988212584,1.0,0.2591623067855835,0.03403141349554062,0.23298428952693936,0.2670156955718994,0.24607330560684204,0.28010472655296326,0.2513088881969452,0.2513088881969452,0.0,0.0,0.0,0.0,0.0,0.0,0.0,0.0,0.0,0.0,0.0,0.0,0.0,0.0,0.0,0.0,0.0,0.0,0.0,0.0,0.0,0.0,0.0,0.0,0.0,0.0,0.0,0.0,0.0,0.0,0.0,0.0,0.0,0.0,0.0,0.0,0.0,0.0,0.0,0.0,0.0,0.0,0.0,0.0,0.0,0.0,0.0,0.0,0.0,0.0,0.0,0.0,0.0,0.0,0.0,0.0,0.0,0.0,0.0,0.0,0.0,0.0,0.0,0.0,0.0,0.0,0.0,0.0,0.0,0.0,0.0,0.0,0.0,0.0,0.0,0.0,0.0,0.0,0.0,0.0,0.0,0.0,0.0,0.0,0.0,0.0,0.0,0.0,0.0,0.0,0.0,0.0,0.0,0.0,0.0,0.0,0.0,0.0,0.0,0.0,0.0,0.0,0.0,0.0,0.0,0.0,0.0,0.0,0.0,0.0,0.0,0.0,0.0,0.0,0.0,0.0,0.0,0.0,0.0,0.0,0.0,0.0,0.0,0.0,0.0,0.0,0.0,0.0,0.0,0.0,0.0,0.0,1.0
0.9919028282165528,0.7854251265525818,0.5425100922584534,0.2591093182563782,0.028340080752968788,0.0,0.02429149858653545,0.02429149858653545,0.012145749293267725,0.06072874367237091,0.05263157933950424,0.06072874367237091,0.07287449389696121,0.07692307978868483,0.056680161505937576,0.08097165822982787,0.08906882256269456,0.08906882256269456,0.0850202441215515,0.1295546591281891,0.1295546591281891,0.16194331645965576,0.14979757368564603,0.1862348169088364,0.2145749032497406,0.2591093182563782,0.24696356058120728,0.3076923191547394,0.3319838047027588,0.3765182197093964,0.37246963381767273,0.40485829114913935,0.3927125632762909,0.4331983923912048,0.3846153914928436,0.34008097648620605,0.27935221791267395,0.27935221791267395,0.20242914557456967,0.16194331645965576,0.1538461595773697,0.15789473056793213,0.1295546591281891,0.14574898779392242,0.1295546591281891,0.1538461595773697,0.13360324501991272,0.15789473056793213,0.13765181601047516,0.19028340280056,0.1417004019021988,0.1295546591281891,0.13360324501991272,0.16194331645965576,0.1538461595773697,0.17408907413482666,0.14574898779392242,0.12550607323646543,0.11740890890359879,0.14979757368564603,0.11740890890359879,0.1659919023513794,0.1417004019021988,0.1538461595773697,0.13765181601047516,0.1417004019021988,0.13360324501991272,0.1538461595773697,0.1295546591281891,0.1417004019021988,0.13765181601047516,0.1417004019021988,0.13360324501991272,0.17004048824310303,0.1417004019021988,0.19028340280056,0.17813764512538907,0.2145749032497406,0.21862348914146423,0.2753036320209503,0.2348178178071976,0.21862348914146423,0.2064777314662933,0.21862348914146423,0.19433198869228363,0.19433198869228363,0.17004048824310303,0.19433198869228363,0.18218623101711276,0.17813764512538907,0.13360324501991272,0.1659919023513794,0.15789473056793213,0.19838055968284607,0.1538461595773697,0.11740890890359879,0.1417004019021988,0.17004048824310303,0.1538461595773697,0.16194331645965576,0.1659919023513794,0.19433198869228363,0.18218623101711276,0.24696356058120728,0.29959514737129206,0.46153846383094793,0.5303643941879272,0.4696356356143952,0.37246963381767273,0.6558704376220703,0.9392712712287904,1.0,0.7449392676353455,0.5182186365127563,0.18218623101711276,0.06072874367237091,0.028340080752968788,0.11740890890359879,0.1538461595773697,0.19433198869228363,0.17408907413482666,0.19838055968284607,0.19433198869228363,0.22672064602375033,0.2145749032497406,0.2348178178071976,0.21862348914146423,0.2591093182563782,0.25101214647293085,0.2955465614795685,0.2874493896961212,0.3319838047027588,0.3319838047027588,0.0,0.0,0.0,0.0,0.0,0.0,0.0,0.0,0.0,0.0,0.0,0.0,0.0,0.0,0.0,0.0,0.0,0.0,0.0,0.0,0.0,0.0,0.0,0.0,0.0,0.0,0.0,0.0,0.0,0.0,0.0,0.0,0.0,0.0,0.0,0.0,0.0,0.0,0.0,0.0,0.0,0.0,0.0,0.0,0.0,0.0,0.0,0.0,0.0,0.0,0.0,0.0,0.0,0.0,0.0
0.6192170977592468,0.48932385444641113,0.32740214467048645,0.11032028496265411,0.0,0.06049821898341178,0.10854092240333556,0.10854092240333556,0.1459074765443802,0.19217081367969513,0.2224199324846268,0.2597864866256714,0.2793594300746918,0.28291815519332886,0.2793594300746918,0.2758007049560547,0.2811387777328491,0.2882562279701233,0.28647688031196594,0.2811387777328491,0.2793594300746918,0.29003557562828064,0.2918149530887604,0.2971530258655548,0.3131672739982605,0.33451956510543823,0.3576512336730957,0.3807829320430756,0.4056939482688904,0.435943067073822,0.4644128084182739,0.4768683314323425,0.4911032021045685,0.5088967680931091,0.5017793774604796,0.49644127488136286,0.4839857518672943,0.4715302586555481,0.4572953879833221,0.4306049942970276,0.4163700938224792,0.4074732959270477,0.38612100481987,0.35943061113357544,0.3505338132381439,0.354092538356781,0.3416370153427124,0.33096083998680115,0.32740214467048645,0.33096083998680115,0.32740214467048645,0.3131672739982605,0.31494662165641785,0.3220640420913696,0.31850534677505493,0.3131672739982605,0.3113878965377808,0.3167259693145752,0.3113878965377808,0.30249109864234924,0.2989323735237121,0.3078291714191437,0.304270476102829,0.29537367820739746,0.29003557562828064,0.2989323735237121,0.2918149530887604,0.29003557562828064,0.29003557562828064,0.29537367820739746,0.2882562279701233,0.29003557562828064,0.2882562279701233,0.2882562279701233,0.2882562279701233,0.28647688031196594,0.2918149530887604,0.2971530258655548,0.30249109864234924,0.3007117509841919,0.3096085488796234,0.32384341955184937,0.33096083998680115,0.32740214467048645,0.3202846944332123,0.31494662165641785,0.29537367820739746,0.2811387777328491,0.27402135729789734,0.2669039070606232,0.2633451819419861,0.26156583428382874,0.2633451819419861,0.2722419798374176,0.2775800824165344,0.29537367820739746,0.354092538356781,0.4715302586555481,0.6583629846572876,0.8505337834358214,1.0,0.9768683314323424,0.5427046418190001,0.19395017623901367,0.18505337834358213,0.21886120736598969,0.22419929504394528,0.20106761157512665,0.20462633669376373,0.20996440947055817,0.20106761157512665,0.19750890135765076,0.0,0.0,0.0,0.0,0.0,0.0,0.0,0.0,0.0,0.0,0.0,0.0,0.0,0.0,0.0,0.0,0.0,0.0,0.0,0.0,0.0,0.0,0.0,0.0,0.0,0.0,0.0,0.0,0.0,0.0,0.0,0.0,0.0,0.0,0.0,0.0,0.0,0.0,0.0,0.0,0.0,0.0,0.0,0.0,0.0,0.0,0.0,0.0,0.0,0.0,0.0,0.0,0.0,0.0,0.0,0.0,0.0,0.0,0.0,0.0,0.0,0.0,0.0,0.0,0.0,0.0,0.0,0.0,0.0,0.0,0.0,0.0,0.0,0.0,0.0,2.0
0.9084249138832092,0.7838827967643738,0.5311355590820312,0.3626373708248138,0.36630037426948553,0.3443223536014557,0.3333333432674408,0.3076923191547394,0.2967033088207245,0.30036631226539606,0.3040293157100677,0.3369963467121124,0.3772893846035004,0.3919413983821869,0.4395604431629181,0.44688645005226135,0.45787546038627613,0.479853481054306,0.512820541858673,0.5347985625267029,0.5860806107521057,0.5860806107521057,0.6043956279754639,0.6336996555328369,0.6153846383094788,0.5824176073074341,0.5641025900840759,0.5201465487480164,0.49084249138832087,0.49084249138832087,0.46886447072029114,0.4542124569416046,0.450549453496933,0.4652014672756195,0.450549453496933,0.4322344362735748,0.4249084293842316,0.41025641560554493,0.3919413983821869,0.3699633777141571,0.37362638115882874,0.36630037426948553,0.3186813294887543,0.311355322599411,0.32600733637809753,0.311355322599411,0.31501832604408264,0.3223443329334259,0.3443223536014557,0.3443223536014557,0.3333333432674408,0.3040293157100677,0.3076923191547394,0.282051295042038,0.27106228470802307,0.2857142984867096,0.2637362778186798,0.2747252881526947,0.282051295042038,0.26739928126335144,0.27838829159736633,0.2893773019313812,0.29304030537605286,0.2893773019313812,0.2893773019313812,0.2893773019313812,0.29304030537605286,0.282051295042038,0.26739928126335144,0.2564102709293365,0.25274726748466486,0.2161172181367874,0.22344322502613068,0.2380952388048172,0.2161172181367874,0.26739928126335144,0.4175824224948883,0.5824176073074341,0.6153846383094788,0.622710645198822,0.761904776096344,0.8644688725471495,1.0,0.9084249138832092,0.6739926934242249,0.31501832604408264,0.1538461595773697,0.1208791211247444,0.09890110045671464,0.04395604506134986,0.02197802253067493,0.02197802253067493,0.0293040294200182,0.0,0.010989011265337467,0.0293040294200182,0.014652014710009098,0.02197802253067493,0.04395604506134986,0.08791209012269972,0.0,0.0,0.0,0.0,0.0,0.0,0.0,0.0,0.0,0.0,0.0,0.0,0.0,0.0,0.0,0.0,0.0,0.0,0.0,0.0,0.0,0.0,0.0,0.0,0.0,0.0,0.0,0.0,0.0,0.0,0.0,0.0,0.0,0.0,0.0,0.0,0.0,0.0,0.0,0.0,0.0,0.0,0.0,0.0,0.0,0.0,0.0,0.0,0.0,0.0,0.0,0.0,0.0,0.0,0.0,0.0,0.0,0.0,0.0,0.0,0.0,0.0,0.0,0.0,0.0,0.0,0.0,0.0,0.0,0.0,0.0,0.0,0.0,0.0,0.0,0.0,0.0,0.0,0.0,0.0,0.0,0.0,0.0,0.0,0.0,0.0,0.0,0.0
0.9356617927551267,0.7922794222831726,0.5128676295280457,0.2261029481887817,0.040441177785396576,0.02757352963089943,0.06433823704719543,0.08639705926179884,0.09742647409439088,0.09375,0.08455882221460342,0.09191176295280457,0.09191176295280457,0.082720585167408,0.08088235557079315,0.08639705926179884,0.09375,0.08455882221460342,0.07536764442920685,0.07536764442920685,0.07720588147640227,0.0680147036910057,0.056985292583704,0.060661762952804565,0.060661762952804565,0.049632351845502846,0.040441177785396576,0.033088237047195435,0.040441177785396576,0.023897059261798855,0.012867647223174572,0.016544118523597717,0.025735294446349144,0.023897059261798855,0.02757352963089943,0.040441177785396576,0.053308822214603424,0.06433823704719543,0.07536764442920685,0.09742647409439088,0.11397058516740798,0.12683823704719543,0.1360294073820114,0.15073528885841367,0.15992647409439087,0.15808823704719543,0.1452205926179886,0.13786764442920685,0.1323529481887817,0.12316176295280457,0.10110294073820114,0.09191176295280457,0.09191176295280457,0.08455882221460342,0.07352941483259201,0.07720588147640227,0.07904411852359772,0.07904411852359772,0.07904411852359772,0.082720585167408,0.0882352963089943,0.08639705926179884,0.09007352590560912,0.09742647409439088,0.10294117778539656,0.09558823704719543,0.09558823704719543,0.10294117778539656,0.10661764442920683,0.10661764442920683,0.10661764442920683,0.11397058516740798,0.11397058516740798,0.10661764442920683,0.104779414832592,0.11397058516740798,0.11029411852359772,0.11029411852359772,0.10845588147640228,0.11397058516740798,0.12132352590560912,0.11397058516740798,0.11213235557079317,0.11580882221460342,0.11764705926179884,0.11580882221460342,0.10661764442920683,0.11029411852359772,0.11948529630899428,0.11213235557079317,0.11029411852359772,0.11580882221460342,0.12316176295280457,0.12316176295280457,0.12132352590560912,0.11580882221460342,0.12316176295280457,0.11948529630899428,0.11764705926179884,0.11213235557079317,0.12132352590560912,0.12132352590560912,0.11948529630899428,0.12316176295280457,0.12683823704719543,0.12316176295280457,0.11397058516740798,0.12132352590560912,0.12867647409439087,0.12132352590560912,0.125,0.1323529481887817,0.13419117033481595,0.13419117033481595,0.14154411852359772,0.15073528885841367,0.14889705181121826,0.14338235557079315,0.12867647409439087,0.13419117033481595,0.15073528885841367,0.15992647409439087,0.14338235557079315,0.12867647409439087,0.12316176295280457,0.11948529630899428,0.11397058516740798,0.11580882221460342,0.11213235557079317,0.11029411852359772,0.18014705181121823,0.26838234066963196,0.26654410362243647,0.125,0.23161764442920685,0.5643382072448729,0.8602941036224365,1.0,0.9448529481887816,0.7297794222831726,0.4613970518112183,0.209558829665184,0.029411764815449715,0.0,0.040441177785396576,0.0680147036910057,0.07169117778539658,0.07169117778539658,0.07536764442920685,0.07169117778539658,0.0680147036910057,0.0625,0.07536764442920685,0.06985294073820114,0.06617647409439087,0.06617647409439087,0.0680147036910057,0.060661762952804565,0.05514705926179886,0.053308822214603424,0.05514705926179886,0.038602940738201134,0.033088237047195435,0.03125,0.029411764815449715,0.0,0.0,0.0,0.0,0.0,0.0,0.0,0.0,0.0,0.0,0.0,0.0,0.0,0.0,0.0,0.0,0.0,0.0,0.0,0.0,0.0,0.0,0.0
0.730088472366333,0.21238937973976132,0.0,0.1194690242409706,0.10176990926265717,0.10176990926265717,0.11061947047710417,0.12389380484819412,0.11504425108432768,0.13274335861206055,0.10619468986988068,0.14159291982650757,0.12831857800483704,0.1504424810409546,0.13274335861206055,0.1504424810409546,0.13274335861206055,0.1504424810409546,0.12389380484819412,0.16371680796146393,0.13716813921928403,0.14159291982650757,0.13274335861206055,0.1504424810409546,0.12831857800483704,0.14601770043373108,0.1194690242409706,0.12389380484819412,0.10176990926265717,0.09292035549879074,0.07079645991325377,0.0796460211277008,0.06637167930603027,0.07079645991325377,0.0796460211277008,0.09292035549879074,0.08849557489156723,0.08407079428434373,0.0796460211277008,0.08849557489156723,0.09292035549879074,0.10619468986988068,0.10619468986988068,0.12389380484819412,0.09734513610601424,0.12389380484819412,0.1194690242409706,0.14159291982650757,0.13274335861206055,0.1548672616481781,0.14601770043373108,0.16814158856868744,0.1592920422554016,0.16371680796146393,0.16814158856868744,0.16814158856868744,0.16371680796146393,0.181415930390358,0.18584071099758148,0.1991150379180908,0.17699114978313446,0.20353981852531436,0.19026549160480496,0.20353981852531436,0.19469027221202848,0.21238937973976132,0.20353981852531436,0.21238937973976132,0.21238937973976132,0.22566372156143188,0.2389380484819412,0.28318583965301514,0.3053097426891327,0.3938052952289581,0.45132744312286377,0.43362832069396967,0.37168142199516296,0.35840708017349243,0.27433627843856806,0.2168141603469849,0.181415930390358,0.18584071099758148,0.18584071099758148,0.18584071099758148,0.19469027221202848,0.22566372156143188,0.181415930390358,0.22566372156143188,0.6681416034698486,1.0,0.4601770043373108,0.19026549160480496,0.20353981852531436,0.20796459913253784,0.19469027221202848,0.20796459913253784,0.19469027221202848,0.18584071099758148,0.19469027221202848,0.21238937973976132,0.20796459913253784,0.2168141603469849,0.20796459913253784,0.22566372156143188,0.2168141603469849,0.23451326787471768,0.22566372156143188,0.23451326787471768,0.23008850216865537,0.0,0.0,0.0,0.0,0.0,0.0,0.0,0.0,0.0,0.0,0.0,0.0,0.0,0.0,0.0,0.0,0.0,0.0,0.0,0.0,0.0,0.0,0.0,0.0,0.0,0.0,0.0,0.0,0.0,0.0,0.0,0.0,0.0,0.0,0.0,0.0,0.0,0.0,0.0,0.0,0.0,0.0,0.0,0.0,0.0,0.0,0.0,0.0,0.0,0.0,0.0,0.0,0.0,0.0,0.0,0.0,0.0,0.0,0.0,0.0,0.0,0.0,0.0,0.0,0.0,0.0,0.0,0.0,0.0,0.0,0.0,0.0,0.0,0.0,0.0,0.0,0.0,0.0,0.0
0.0,0.04175824299454689,0.11428571492433548,0.25274726748466486,0.3890109956264496,0.37582418322563166,0.34285715222358704,0.35384616255760193,0.3384615480899811,0.38021978735923767,0.3692307770252228,0.3846153914928436,0.3692307770252228,0.3648351728916168,0.36043956875801086,0.38241758942604065,0.38681319355964655,0.4087912142276764,0.41098901629447937,0.443956047296524,0.4725274741649628,0.5076923370361328,0.49670329689979553,0.5516483783721924,0.5670329928398132,0.6065934300422668,0.6197802424430847,0.6505494713783264,0.6659340858459473,0.6615384817123413,0.6549450755119324,0.6659340858459473,0.6329670548439026,0.6197802424430847,0.5692307949066162,0.5516483783721924,0.5230769515037537,0.5164835453033447,0.4813186824321746,0.4769230782985687,0.4593406617641449,0.42637363076210016,0.39340659976005554,0.4219780266284943,0.41538462042808527,0.4241758286952973,0.4175824224948883,0.4175824224948883,0.4087912142276764,0.4065934121608734,0.37582418322563166,0.37802198529243464,0.37362638115882874,0.38681319355964655,0.3692307770252228,0.38021978735923767,0.3384615480899811,0.3582417666912079,0.3296703398227692,0.34505495429039,0.34285715222358704,0.34725275635719294,0.3362637460231781,0.3626373708248138,0.34285715222358704,0.34285715222358704,0.32307693362236023,0.32087913155555725,0.31208792328834534,0.32307693362236023,0.33186814188957214,0.3648351728916168,0.3362637460231781,0.3340659439563751,0.32307693362236023,0.32307693362236023,0.3032967150211334,0.32307693362236023,0.29890111088752747,0.30989012122154236,0.3076923191547394,0.3164835274219513,0.3186813294887543,0.3274725377559662,0.32307693362236023,0.3274725377559662,0.3252747356891632,0.3340659439563751,0.3362637460231781,0.3362637460231781,0.3076923191547394,0.32307693362236023,0.32087913155555725,0.3362637460231781,0.3252747356891632,0.3384615480899811,0.34065935015678406,0.34065935015678406,0.3186813294887543,0.3384615480899811,0.3252747356891632,0.349450558423996,0.35384616255760193,0.3142857253551483,0.30109891295433044,0.3340659439563751,0.3340659439563751,0.34725275635719294,0.349450558423996,0.4043956100940704,0.4065934121608734,0.446153849363327,0.4351648390293121,0.441758245229721,0.4329670369625092,0.41098901629447937,0.37802198529243464,0.38241758942604065,0.3626373708248138,0.37142857909202576,0.3846153914928436,0.3890109956264496,0.4373626410961151,0.7670329809188842,1.0,0.9494505524635315,0.5340659618377686,0.33186814188957214,0.3362637460231781,0.3296703398227692,0.34285715222358704,0.3076923191547394,0.2769230902194977,0.31208792328834534,0.3076923191547394,0.3186813294887543,0.0,0.0,0.0,0.0,0.0,0.0,0.0,0.0,0.0,0.0,0.0,0.0,0.0,0.0,0.0,0.0,0.0,0.0,0.0,0.0,0.0,0.0,0.0,0.0,0.0,0.0,0.0,0.0,0.0,0.0,0.0,0.0,0.0,0.0,0.0,0.0,0.0,0.0,0.0,0.0,0.0,0.0,0.0,0.0,0.0,0.0,0.0,0.0,0.0,0.0,0.0,2.0
1.0,0.9712352156639101,0.4585448503494263,0.13028764724731445,0.06768189370632172,0.010152284055948256,0.003384094685316086,0.01692047342658043,0.08629441261291504,0.2335025370121002,0.3993231952190399,0.4839255511760712,0.4771573543548584,0.4636209905147552,0.4991539716720581,0.49576988816261286,0.4703891575336456,0.4788494110107422,0.4737732708454132,0.4771573543548584,0.4483925402164459,0.42978003621101374,0.4348561763763428,0.44500845670700073,0.4111675024032593,0.3705583810806274,0.4111675024032593,0.3993231952190399,0.3824027180671692,0.38747885823249817,0.4077834188938141,0.4213197827339172,0.44500845670700073,0.45516073703765864,0.4703891575336456,0.5025380849838257,0.5008460283279419,0.4940778315067291,0.5126903653144836,0.5177664756774902,0.49576988816261286,0.5025380849838257,0.5025380849838257,0.5126903653144836,0.480541467666626,0.4923857748508453,0.4974619150161743,0.49069374799728394,0.5109983086586,0.4788494110107422,0.4720812141895294,0.49069374799728394,0.4839255511760712,0.49069374799728394,0.5126903653144836,0.5093062520027161,0.519458532333374,0.49069374799728394,0.4839255511760712,0.5042301416397095,0.48900169134140015,0.4720812141895294,0.5076141953468323,0.5245347023010254,0.5025380849838257,0.48900169134140015,0.5262267589569092,0.5143824219703673,0.5076141953468323,0.49576988816261286,0.4991539716720581,0.5076141953468323,0.5160744786262512,0.5008460283279419,0.5143824219703673,0.5059221386909485,0.5059221386909485,0.5093062520027161,0.5245347023010254,0.5346869826316833,0.5313028693199158,0.5482233762741089,0.5736040472984314,0.5854483842849731,0.5431472063064575,0.5431472063064575,0.5905245542526245,0.5668358802795409,0.5228426456451416,0.5042301416397095,0.5042301416397095,0.48561760783195496,0.4703891575336456,0.45516073703765864,0.4771573543548584,0.4991539716720581,0.4788494110107422,0.44500845670700073,0.4771573543548584,0.4568527936935425,0.47546532750129694,0.480541467666626,0.5313028693199158,0.7394247055053712,0.8477157354354857,0.8510998487472534,0.9323180913925171,0.6395938992500305,0.14890016615390775,0.032148901373147964,0.018612520769238472,0.008460236713290215,0.0,0.0118443313986063,0.09813874959945679,0.25380709767341614,0.3671742677688599,0.3993231952190399,0.42301183938980097,0.44500845670700073,0.438240259885788,0.44670051336288447,0.438240259885788,0.42978003621101374,0.4247038960456848,0.0,0.0,0.0,0.0,0.0,0.0,0.0,0.0,0.0,0.0,0.0,0.0,0.0,0.0,0.0,0.0,0.0,0.0,0.0,0.0,0.0,0.0,0.0,0.0,0.0,0.0,0.0,0.0,0.0,0.0,0.0,0.0,0.0,0.0,0.0,0.0,0.0,0.0,0.0,0.0,0.0,0.0,0.0,0.0,0.0,0.0,0.0,0.0,0.0,0.0,0.0,0.0,0.0,0.0,0.0,0.0,0.0,0.0,0.0,0.0,0.0,0.0,1.0
0.9553264379501343,0.9347078800201416,0.5292096138000488,0.10996563732624053,0.0,0.08934707939624785,0.14089347422122955,0.1340206116437912,0.15807560086250305,0.1477663218975067,0.1512027531862259,0.1340206116437912,0.14089347422122955,0.12714776396751404,0.1305841952562332,0.12714776396751404,0.1340206116437912,0.1168384850025177,0.1340206116437912,0.13745704293251035,0.1477663218975067,0.1512027531862259,0.15807560086250305,0.16151203215122223,0.18213059008121488,0.19243986904621124,0.21649484336376193,0.22336769104003903,0.2542955279350281,0.25773194432258606,0.29209622740745544,0.2989690601825714,0.32302406430244446,0.31271478533744806,0.30584192276000977,0.2680412232875824,0.25773194432258606,0.21993127465248108,0.21305841207504272,0.19243986904621124,0.1993127167224884,0.18213059008121488,0.20962199568748477,0.22680412232875824,0.4020618498325348,0.6666666865348816,0.9759449958801267,1.0,0.7216494679450989,0.36769759654998774,0.27835050225257874,0.22680412232875824,0.2061855643987656,0.17869415879249573,0.17525772750377655,0.15807560086250305,0.1649484485387802,0.15463916957378387,0.16151203215122223,0.15463916957378387,0.1649484485387802,0.15463916957378387,0.17869415879249573,0.15807560086250305,0.17525772750377655,0.17182131111621857,0.1890034377574921,0.17525772750377655,0.1993127167224884,0.1993127167224884,0.2302405536174774,0.0,0.0,0.0,0.0,0.0,0.0,0.0,0.0,0.0,0.0,0.0,0.0,0.0,0.0,0.0,0.0,0.0,0.0,0.0,0.0,0.0,0.0,0.0,0.0,0.0,0.0,0.0,0.0,0.0,0.0,0.0,0.0,0.0,0.0,0.0,0.0,0.0,0.0,0.0,0.0,0.0,0.0,0.0,0.0,0.0,0.0,0.0,0.0,0.0,0.0,0.0,0.0,0.0,0.0,0.0,0.0,0.0,0.0,0.0,0.0,0.0,0.0,0.0,0.0,0.0,0.0,0.0,0.0,0.0,0.0,0.0,0.0,0.0,0.0,0.0,0.0,0.0,0.0,0.0,0.0,0.0,0.0,0.0,0.0,0.0,0.0,0.0,0.0,0.0,0.0,0.0,0.0,0.0,0.0,0.0,0.0,0.0,0.0,0.0,0.0,0.0,0.0,0.0,0.0,0.0,0.0,0.0,0.0,0.0,0.0,0.0,0.0,0.0,0.0,0.0,0.0,1.0
0.9597122073173523,0.7553957104682921,0.37122303247451777,0.09064748138189316,0.03597122430801392,0.132374107837677,0.17841726541519165,0.16546761989593503,0.14820143580436707,0.15683452785015106,0.15683452785015106,0.13525180518627167,0.13812950253486633,0.1424460411071777,0.1453237384557724,0.15251798927783966,0.15971222519874573,0.18705035746097565,0.19424460828304288,0.2057553976774216,0.23453237116336825,0.2604316473007202,0.29208633303642273,0.32230216264724726,0.34100720286369324,0.37266185879707336,0.4028776884078979,0.4258992671966553,0.44028776884078974,0.448920875787735,0.4604316651821136,0.4561150968074799,0.43165466189384466,0.4244604408740997,0.4100719392299652,0.38705036044120794,0.36402878165245056,0.34100720286369324,0.3266187012195587,0.3079136610031128,0.28057554364204407,0.2733812928199768,0.2690647542476654,0.25755396485328674,0.25755396485328674,0.2633093595504761,0.2633093595504761,0.28057554364204407,0.29640287160873413,0.32230216264724726,0.34676259756088257,0.34532374143600464,0.33237409591674805,0.2906474769115448,0.2460431605577469,0.2302158325910568,0.2230215817689896,0.2230215817689896,0.2302158325910568,0.2230215817689896,0.21870504319667816,0.23165467381477356,0.21870504319667816,0.20143884420394895,0.2388489246368408,0.4460431635379791,0.7971222996711731,1.0,0.7755395770072938,0.40431654453277593,0.09352517873048782,0.0,0.10935252159833908,0.1424460411071777,0.12230215966701508,0.1107913702726364,0.09928057342767715,0.1064748167991638,0.09928057342767715,0.09208633005619048,0.0,0.0,0.0,0.0,0.0,0.0,0.0,0.0,0.0,0.0,0.0,0.0,0.0,0.0,0.0,0.0,0.0,0.0,0.0,0.0,0.0,0.0,0.0,0.0,0.0,0.0,0.0,0.0,0.0,0.0,0.0,0.0,0.0,0.0,0.0,0.0,0.0,0.0,0.0,0.0,0.0,0.0,0.0,0.0,0.0,0.0,0.0,0.0,0.0,0.0,0.0,0.0,0.0,0.0,0.0,0.0,0.0,0.0,0.0,0.0,0.0,0.0,0.0,0.0,0.0,0.0,0.0,0.0,0.0,0.0,0.0,0.0,0.0,0.0,0.0,0.0,0.0,0.0,0.0,0.0,0.0,0.0,0.0,0.0,0.0,0.0,0.0,0.0,0.0,0.0,0.0,0.0,0.0,0.0,0.0,0.0,0.0,0.0,0.0,0.0,0.0,0.0,0.0,0.0,0.0,0.0,0.0,0.0
0.0,0.007299270015209913,0.06690997630357742,0.16423358023166656,0.237226277589798,0.3102189898490906,0.36009731888771057,0.3832116723060608,0.44647201895713806,0.529197096824646,0.5912408828735352,0.6021897792816162,0.6034063100814819,0.614355206489563,0.6216545104980469,0.6350364685058594,0.6447688341140747,0.6557177901268004,0.6690997481346129,0.6824817657470703,0.6946471929550171,0.7141119241714478,0.7311435341835022,0.7360097169876098,0.7481752038002014,0.7603406310081483,0.7591241002082824,0.7469586133956909,0.7274939417839049,0.7068126797676086,0.6824817657470703,0.6508516073226929,0.6240875720977783,0.6009732484817505,0.5766423344612122,0.5583941340446472,0.5462287068367004,0.5401459932327272,0.5243309140205383,0.5194647312164307,0.5267639756202698,0.5218977928161621,0.5158150792121887,0.5133820176124573,0.5182482004165649,0.5218977928161621,0.5133820176124573,0.514598548412323,0.5194647312164307,0.5133820176124573,0.5085158348083496,0.5072992444038391,0.5085158348083496,0.5097323656082153,0.5036496520042419,0.5048661828041077,0.5085158348083496,0.5048661828041077,0.5024330615997313,0.5012165307998657,0.5048661828041077,0.5036496520042419,0.5024330615997313,0.49756690859794617,0.5024330615997313,0.5060827136039734,0.5012165307998657,0.5,0.5060827136039734,0.5121654272079468,0.5072992444038391,0.5133820176124573,0.5267639756202698,0.5401459932327272,0.5474452376365662,0.5681264996528625,0.5839415788650513,0.5729926824569702,0.5693430900573729,0.5681264996528625,0.5425790548324585,0.5231143832206726,0.5048661828041077,0.4927007257938385,0.4927007257938385,0.5024330615997313,0.49756690859794617,0.49756690859794617,0.5218977928161621,0.6472019553184509,0.8053528070449829,0.9403892755508423,1.0,0.8868613243103027,0.6204379796981812,0.5206812620162964,0.510948896408081,0.47201946377754206,0.4489051103591919,0.4501216411590576,0.4501216411590576,0.4476885497570038,0.0,0.0,0.0,0.0,0.0,0.0,0.0,0.0,0.0,0.0,0.0,0.0,0.0,0.0,0.0,0.0,0.0,0.0,0.0,0.0,0.0,0.0,0.0,0.0,0.0,0.0,0.0,0.0,0.0,0.0,0.0,0.0,0.0,0.0,0.0,0.0,0.0,0.0,0.0,0.0,0.0,0.0,0.0,0.0,0.0,0.0,0.0,0.0,0.0,0.0,0.0,0.0,0.0,0.0,0.0,0.0,0.0,0.0,0.0,0.0,0.0,0.0,0.0,0.0,0.0,0.0,0.0,0.0,0.0,0.0,0.0,0.0,0.0,0.0,0.0,0.0,0.0,0.0,0.0,0.0,0.0,0.0,0.0,0.0,0.0,2.0
0.997429311275482,0.8611825108528137,0.3650385737419128,0.07197943329811096,0.08226221054792403,0.10025706887245178,0.07455012947320938,0.0514138825237751,0.0514138825237751,0.04370179772377014,0.061696659773588174,0.053984574973583214,0.04627249389886856,0.04627249389886856,0.05655527114868164,0.05655527114868164,0.05655527114868164,0.05912596359848976,0.07197943329811096,0.06940873712301254,0.05912596359848976,0.06940873712301254,0.08226221054792403,0.07455012947320938,0.07969151437282562,0.09768637269735336,0.09511568397283554,0.09511568397283554,0.1028277650475502,0.10539846122264862,0.1028277650475502,0.10539846122264862,0.1028277650475502,0.12596401572227478,0.13367609679698944,0.11825192719697952,0.11053984612226486,0.13110539317131042,0.13624678552150726,0.12082262337207794,0.10539846122264862,0.11311054229736328,0.11311054229736328,0.11311054229736328,0.1028277650475502,0.1028277650475502,0.10539846122264862,0.1028277650475502,0.09511568397283554,0.11053984612226486,0.11053984612226486,0.12339331954717636,0.11825192719697952,0.11311054229736328,0.1156812310218811,0.1156812310218811,0.11311054229736328,0.13110539317131042,0.1285347044467926,0.12339331954717636,0.13881747424602509,0.15938302874565125,0.16966581344604492,0.1825192868709564,0.1876606643199921,0.19023136794567108,0.2005141377449036,0.17737789452075958,0.13624678552150726,0.10796914994716644,0.09254498779773712,0.08740359544754028,0.07197943329811096,0.06683804839849472,0.07197943329811096,0.0642673522233963,0.04884318634867668,0.04627249389886856,0.1542416512966156,0.38303342461586,0.7660668492317199,1.0,0.740359902381897,0.24421593546867368,0.03856041282415391,0.06683804839849472,0.07197943329811096,0.01799485832452774,0.010282776318490503,0.012853470630943775,0.010282776318490503,0.010282776318490503,0.0,0.005141388159245253,0.02313624694943428,0.02313624694943428,0.0025706940796226263,0.0,0.0,0.0,0.0,0.0,0.0,0.0,0.0,0.0,0.0,0.0,0.0,0.0,0.0,0.0,0.0,0.0,0.0,0.0,0.0,0.0,0.0,0.0,0.0,0.0,0.0,0.0,0.0,0.0,0.0,0.0,0.0,0.0,0.0,0.0,0.0,0.0,0.0,0.0,0.0,0.0,0.0,0.0,0.0,0.0,0.0,0.0,0.0,0.0,0.0,0.0,0.0,0.0,0.0,0.0,0.0,0.0,0.0,0.0,0.0,0.0,0.0,0.0,0.0,0.0,0.0,0.0,0.0,0.0,0.0,0.0,0.0,0.0,0.0,0.0,0.0,0.0,0.0,0.0,0.0,0.0,0.0,0.0,0.0,0.0,0.0,0.0,0.0,0.0,0.0,0.0
0.9918699264526368,0.8764227628707885,0.3495934903621673,0.0,0.12520325183868408,0.22926829755306244,0.25853657722473145,0.29593494534492487,0.29430893063545227,0.28617885708808893,0.28780487179756165,0.2991870045661926,0.29430893063545227,0.2991870045661926,0.29593494534492487,0.30569106340408325,0.30569106340408325,0.29756098985672,0.30243903398513794,0.3073170781135559,0.3008130192756653,0.29756098985672,0.3008130192756653,0.30569106340408325,0.3154471516609192,0.3073170781135559,0.30894309282302856,0.32032519578933716,0.3252032399177551,0.3252032399177551,0.33658537268638605,0.35772356390953064,0.3723577260971069,0.37560975551605214,0.3869918584823608,0.411382108926773,0.42113819718360895,0.42276424169540405,0.4439024329185486,0.45365855097770685,0.4585365951061249,0.44715446233749384,0.437398374080658,0.42601627111434937,0.40325203537940973,0.38211381435394287,0.36422765254974365,0.3479674756526947,0.34471544623374933,0.33170732855796814,0.3252032399177551,0.33495935797691345,0.3268292546272278,0.3186991810798645,0.31707316637039185,0.3186991810798645,0.3219512104988098,0.30894309282302856,0.3073170781135559,0.3219512104988098,0.3186991810798645,0.3154471516609192,0.3219512104988098,0.32032519578933716,0.3252032399177551,0.3219512104988098,0.32357722520828247,0.3268292546272278,0.33495935797691345,0.32032519578933716,0.32357722520828247,0.3333333432674408,0.3268292546272278,0.3121951222419739,0.3186991810798645,0.3268292546272278,0.3186991810798645,0.31382113695144653,0.31382113695144653,0.31707316637039185,0.3105691075325012,0.30243903398513794,0.30406504869461054,0.3154471516609192,0.3121951222419739,0.30406504869461054,0.30569106340408325,0.3121951222419739,0.3121951222419739,0.30569106340408325,0.3073170781135559,0.3154471516609192,0.31707316637039185,0.30569106340408325,0.3186991810798645,0.34308943152427673,0.3479674756526947,0.3398374021053314,0.356097549200058,0.3593495786190033,0.35121950507164,0.33658537268638605,0.3414634168148041,0.34308943152427673,0.32032519578933716,0.2926829159259796,0.2926829159259796,0.29430893063545227,0.28780487179756165,0.2796747982501984,0.28780487179756165,0.29593494534492487,0.28617885708808893,0.2829268276691437,0.28617885708808893,0.29430893063545227,0.29593494534492487,0.29430893063545227,0.29430893063545227,0.3186991810798645,0.33170732855796814,0.3772357702255249,0.5707316994667053,0.8243902325630189,1.0,0.7414634227752684,0.20975609123706815,0.035772357136011124,0.20813007652759552,0.26178860664367676,0.27642276883125305,0.30569106340408325,0.3121951222419739,0.29593494534492487,0.29756098985672,0.31382113695144653,0.3121951222419739,0.30894309282302856,0.3105691075325012,0.3121951222419739,0.3186991810798645,0.30243903398513794,0.3105691075325012,0.3186991810798645,0.32032519578933716,0.30894309282302856,0.3073170781135559,0.3219512104988098,0.0,0.0,0.0,0.0,0.0,0.0,0.0,0.0,0.0,0.0,0.0,0.0,0.0,0.0,0.0,0.0,0.0,0.0,0.0,0.0,0.0,0.0,0.0,0.0,0.0,0.0,0.0,0.0,0.0,0.0,0.0,0.0,0.0,0.0,0.0,0.0,0.0,0.0,0.0,0.0
1.0,0.8828337788581848,0.19073569774627683,0.2179836481809616,0.14168937504291534,0.12806539237499237,0.12534059584140775,0.1117166206240654,0.12534059584140775,0.19346049427986145,0.2397820204496384,0.346049040555954,0.35694822669029236,0.37602180242538447,0.3787465989589691,0.3869209885597229,0.39509537816047674,0.40871936082839966,0.41144412755966187,0.430517703294754,0.4468664824962616,0.4768392443656921,0.4713896512985229,0.5122615694999695,0.531335175037384,0.5476838946342468,0.5640326738357544,0.5858310461044312,0.5613079071044922,0.5585830807685852,0.5095368027687073,0.4713896512985229,0.43324249982833857,0.40871936082839966,0.3514986336231232,0.3405994474887848,0.30245232582092285,0.2888283431529999,0.2806539535522461,0.2861035466194153,0.2670299708843231,0.29427793622016907,0.2779291570186615,0.2806539535522461,0.2806539535522461,0.2861035466194153,0.2724795639514923,0.29427793622016907,0.2724795639514923,0.2779291570186615,0.2779291570186615,0.2861035466194153,0.2779291570186615,0.3269754648208618,0.31880107522010803,0.3623978197574616,0.3787465989589691,0.3978201746940613,0.35422343015670776,0.3269754648208618,0.25885558128356934,0.2343324273824692,0.2179836481809616,0.215258851647377,0.19073569774627683,0.20435968041419983,0.19346049427986145,0.19891008734703064,0.20435968041419983,0.22615803778171537,0.24250681698322296,0.4168937206268311,0.7547683715820312,0.9591280817985535,0.36784741282463074,0.08446866273880003,0.08719345927238464,0.05177111551165581,0.019073570147156715,0.02179836481809616,0.0,0.05994550511240959,0.1035422310233116,0.20163488388061523,0.25068119168281555,0.26975476741790766,0.2779291570186615,0.31335151195526123,0.0,0.0,0.0,0.0,0.0,0.0,0.0,0.0,0.0,0.0,0.0,0.0,0.0,0.0,0.0,0.0,0.0,0.0,0.0,0.0,0.0,0.0,0.0,0.0,0.0,0.0,0.0,0.0,0.0,0.0,0.0,0.0,0.0,0.0,0.0,0.0,0.0,0.0,0.0,0.0,0.0,0.0,0.0,0.0,0.0,0.0,0.0,0.0,0.0,0.0,0.0,0.0,0.0,0.0,0.0,0.0,0.0,0.0,0.0,0.0,0.0,0.0,0.0,0.0,0.0,0.0,0.0,0.0,0.0,0.0,0.0,0.0,0.0,0.0,0.0,0.0,0.0,0.0,0.0,0.0,0.0,0.0,0.0,0.0,0.0,0.0,0.0,0.0,0.0,0.0,0.0,0.0,0.0,0.0,0.0,0.0,0.0,0.0,0.0,0.0
